6.802602662307693038e+01 6.802602662307693038e+01 6.802602662307693038e+01 6.802602662307693038e+01 6.802602662307693038e+01 6.802602662307693038e+01 6.802602662307693038e+01 6.802602662307693038e+01 6.802602662307693038e+01 6.802602662307693038e+01 6.802602662307693038e+01 6.802602662307693038e+01 6.802602662307693038e+01 6.802602662307693038e+01 6.802602662307693038e+01 6.802602662307693038e+01 6.802602662307693038e+01 6.802602662307693038e+01 6.802602662307693038e+01 6.802602662307693038e+01 6.802602662307693038e+01 6.802602662307693038e+01 6.802602662307693038e+01 6.802602662307693038e+01 6.802602662307693038e+01 6.802602662307693038e+01 6.802602662307693038e+01 6.802602662307693038e+01 6.802602662307693038e+01 6.802602662307693038e+01 6.802602662307693038e+01 6.802602662307693038e+01 6.802602662307693038e+01 6.802602662307693038e+01 6.802602662307693038e+01 6.802602662307693038e+01 6.802602662307693038e+01 6.802602662307693038e+01 6.802602662307693038e+01 6.802602662307693038e+01 6.802602662307693038e+01 6.802602662307693038e+01 6.802602662307693038e+01 6.802602662307693038e+01 6.802602662307693038e+01 6.802602662307693038e+01 6.802602662307693038e+01 6.802602662307693038e+01 6.802602662307693038e+01 6.802602662307693038e+01 6.802602662307693038e+01 6.802602662307693038e+01 6.802602662307693038e+01 6.802602662307693038e+01 6.802602662307693038e+01 6.802602662307693038e+01 6.802602662307693038e+01 6.802602662307693038e+01 6.802602662307693038e+01 6.802602662307693038e+01 6.802602662307693038e+01 6.802602662307693038e+01 6.802602662307693038e+01 6.802602662307693038e+01 6.802602662307693038e+01 6.802602662307693038e+01 6.802602662307693038e+01 6.802602662307693038e+01 6.802602662307693038e+01 6.802602662307693038e+01 6.802602662307693038e+01 6.802602662307693038e+01 6.802602662307693038e+01 6.802602662307693038e+01 6.802602662307693038e+01 6.802602662307693038e+01 6.802602662307693038e+01 6.802602662307693038e+01 6.802602662307693038e+01 6.802602662307693038e+01 6.802602662307693038e+01 6.802602662307693038e+01 6.802602662307693038e+01 6.802602662307693038e+01 6.802602662307693038e+01 6.802602662307693038e+01 6.802602662307693038e+01 6.802602662307693038e+01 6.802602662307693038e+01 6.802602662307693038e+01 6.802602662307693038e+01 6.802602662307693038e+01 6.802602662307693038e+01 6.802602662307693038e+01 6.802602662307693038e+01 6.802602662307693038e+01 6.802602662307693038e+01 6.802602662307693038e+01 6.802602662307693038e+01 6.802602662307693038e+01 6.802602662307693038e+01 6.802602662307693038e+01 6.802602662307693038e+01 6.802602662307693038e+01 6.802602662307693038e+01 6.802602662307693038e+01 6.802602662307693038e+01 6.802602662307693038e+01 6.802602662307693038e+01 6.802602662307693038e+01 6.802602662307693038e+01 6.802602662307693038e+01 6.802602662307693038e+01 6.802602662307693038e+01 6.802602662307693038e+01 6.802602662307693038e+01 6.802602662307693038e+01 6.802602662307693038e+01 6.802602662307693038e+01 6.802602662307693038e+01 6.802602662307693038e+01 6.802602662307693038e+01 6.802602662307693038e+01 6.802602662307693038e+01 6.802602662307693038e+01 6.802602662307693038e+01 6.802602662307693038e+01 6.802602662307693038e+01 6.802602662307693038e+01 6.802602662307693038e+01 6.802602662307693038e+01 6.802602662307693038e+01 6.802602662307693038e+01 6.802602662307693038e+01 6.802602662307693038e+01 6.802602662307693038e+01 6.802602662307693038e+01 6.802602662307693038e+01 6.802602662307693038e+01 6.802602662307693038e+01 6.802602662307693038e+01 6.802602662307693038e+01 6.802602662307693038e+01 6.802602662307693038e+01 6.802602662307693038e+01 6.802602662307693038e+01 6.802602662307693038e+01 6.802602662307693038e+01 6.802602662307693038e+01 6.802602662307693038e+01 6.802602662307693038e+01 6.802602662307693038e+01 6.802602662307693038e+01 6.802602662307693038e+01 6.802602662307693038e+01 6.802602662307693038e+01 6.802602662307693038e+01 6.802602662307693038e+01 6.802602662307693038e+01 6.802602662307693038e+01 6.802602662307693038e+01 6.802602662307693038e+01 6.802602662307693038e+01 6.802602662307693038e+01 6.802602662307693038e+01 6.802602662307693038e+01 6.802602662307693038e+01 6.802602662307693038e+01 6.802602662307693038e+01 6.802602662307693038e+01 6.802602662307693038e+01 6.802602662307693038e+01 6.802602662307693038e+01 6.802602662307693038e+01 6.802602662307693038e+01 6.802602662307693038e+01 6.802602662307693038e+01 3.846372670000000085e+02 3.393268069999999739e+02 3.610818719999999757e+02 3.433190460000000144e+02 3.573409950000000208e+02 3.413531340000000114e+02 3.560762700000000223e+02 3.396992799999999875e+02 3.829110880000000066e+02 3.355993900000000281e+02 3.789252740000000017e+02 3.129556890000000067e+02 3.887735620000000267e+02 3.479005769999999984e+02 3.726506219999999985e+02 3.267559439999999995e+02 3.664266660000000115e+02 3.343397110000000225e+02 3.651053049999999871e+02 3.482241859999999747e+02 3.867893700000000194e+02 3.436578250000000025e+02 3.632497849999999744e+02 3.298358269999999948e+02 3.613122000000000185e+02 3.061645429999999806e+02 3.472452749999999924e+02 3.396091260000000034e+02 3.652841389999999819e+02 3.197713350000000219e+02 3.608288039999999910e+02 3.295037879999999859e+02 3.474141640000000280e+02
7.746777222692307419e+01 7.746777222692307419e+01 7.746777222692307419e+01 7.746777222692307419e+01 7.746777222692307419e+01 7.746777222692307419e+01 7.746777222692307419e+01 7.746777222692307419e+01 7.746777222692307419e+01 7.746777222692307419e+01 7.746777222692307419e+01 7.746777222692307419e+01 7.746777222692307419e+01 7.746777222692307419e+01 7.746777222692307419e+01 7.746777222692307419e+01 7.746777222692307419e+01 7.746777222692307419e+01 7.746777222692307419e+01 7.746777222692307419e+01 7.746777222692307419e+01 7.746777222692307419e+01 7.746777222692307419e+01 7.746777222692307419e+01 7.746777222692307419e+01 7.746777222692307419e+01 7.746777222692307419e+01 7.746777222692307419e+01 7.746777222692307419e+01 7.746777222692307419e+01 7.746777222692307419e+01 7.746777222692307419e+01 7.746777222692307419e+01 7.746777222692307419e+01 7.746777222692307419e+01 7.746777222692307419e+01 7.746777222692307419e+01 7.746777222692307419e+01 7.746777222692307419e+01 7.746777222692307419e+01 7.746777222692307419e+01 7.746777222692307419e+01 7.746777222692307419e+01 7.746777222692307419e+01 7.746777222692307419e+01 7.746777222692307419e+01 7.746777222692307419e+01 7.746777222692307419e+01 7.746777222692307419e+01 7.746777222692307419e+01 7.746777222692307419e+01 7.746777222692307419e+01 7.746777222692307419e+01 7.746777222692307419e+01 7.746777222692307419e+01 7.746777222692307419e+01 7.746777222692307419e+01 7.746777222692307419e+01 7.746777222692307419e+01 7.746777222692307419e+01 7.746777222692307419e+01 7.746777222692307419e+01 7.746777222692307419e+01 7.746777222692307419e+01 7.746777222692307419e+01 7.746777222692307419e+01 7.746777222692307419e+01 7.746777222692307419e+01 7.746777222692307419e+01 7.746777222692307419e+01 7.746777222692307419e+01 7.746777222692307419e+01 7.746777222692307419e+01 7.746777222692307419e+01 7.746777222692307419e+01 7.746777222692307419e+01 7.746777222692307419e+01 7.746777222692307419e+01 7.746777222692307419e+01 7.746777222692307419e+01 7.746777222692307419e+01 7.746777222692307419e+01 7.746777222692307419e+01 7.746777222692307419e+01 7.746777222692307419e+01 7.746777222692307419e+01 7.746777222692307419e+01 7.746777222692307419e+01 7.746777222692307419e+01 7.746777222692307419e+01 7.746777222692307419e+01 7.746777222692307419e+01 7.746777222692307419e+01 7.746777222692307419e+01 7.746777222692307419e+01 7.746777222692307419e+01 7.746777222692307419e+01 7.746777222692307419e+01 7.746777222692307419e+01 7.746777222692307419e+01 7.746777222692307419e+01 7.746777222692307419e+01 7.746777222692307419e+01 7.746777222692307419e+01 7.746777222692307419e+01 7.746777222692307419e+01 7.746777222692307419e+01 7.746777222692307419e+01 7.746777222692307419e+01 7.746777222692307419e+01 7.746777222692307419e+01 7.746777222692307419e+01 7.746777222692307419e+01 7.746777222692307419e+01 7.746777222692307419e+01 7.746777222692307419e+01 7.746777222692307419e+01 7.746777222692307419e+01 7.746777222692307419e+01 7.746777222692307419e+01 7.746777222692307419e+01 7.746777222692307419e+01 7.746777222692307419e+01 7.746777222692307419e+01 7.746777222692307419e+01 7.746777222692307419e+01 7.746777222692307419e+01 7.746777222692307419e+01 7.746777222692307419e+01 7.746777222692307419e+01 7.746777222692307419e+01 7.746777222692307419e+01 7.746777222692307419e+01 7.746777222692307419e+01 7.746777222692307419e+01 7.746777222692307419e+01 7.746777222692307419e+01 7.746777222692307419e+01 7.746777222692307419e+01 7.746777222692307419e+01 7.746777222692307419e+01 7.746777222692307419e+01 7.746777222692307419e+01 7.746777222692307419e+01 7.746777222692307419e+01 7.746777222692307419e+01 7.746777222692307419e+01 7.746777222692307419e+01 7.746777222692307419e+01 7.746777222692307419e+01 7.746777222692307419e+01 7.746777222692307419e+01 7.746777222692307419e+01 7.746777222692307419e+01 7.746777222692307419e+01 7.746777222692307419e+01 7.746777222692307419e+01 7.746777222692307419e+01 7.746777222692307419e+01 7.746777222692307419e+01 7.746777222692307419e+01 7.746777222692307419e+01 7.746777222692307419e+01 7.746777222692307419e+01 7.746777222692307419e+01 7.746777222692307419e+01 7.746777222692307419e+01 7.746777222692307419e+01 7.746777222692307419e+01 7.746777222692307419e+01 7.746777222692307419e+01 7.746777222692307419e+01 7.746777222692307419e+01 7.746777222692307419e+01 7.746777222692307419e+01 7.746777222692307419e+01 7.746777222692307419e+01 3.300393320000000017e+02 2.856100319999999897e+02 3.104080369999999789e+02 2.876750049999999987e+02 2.997621260000000234e+02 2.790127790000000232e+02 3.015949160000000120e+02 2.840953470000000038e+02 3.243683780000000070e+02 2.877717390000000250e+02 3.264635380000000282e+02 2.581148860000000127e+02 3.289254080000000044e+02 2.928258720000000039e+02 3.143762290000000235e+02 2.696850759999999809e+02 3.046984620000000064e+02 2.800520839999999794e+02 3.136883910000000242e+02 2.872649630000000229e+02 3.323620849999999791e+02 2.767535859999999843e+02 3.101562500000000000e+02 2.698725779999999759e+02 3.007563999999999851e+02 2.472407509999999888e+02 2.916087509999999838e+02 2.779873640000000137e+02 3.032993319999999926e+02 2.575324390000000108e+02 3.067957430000000159e+02 2.741159480000000030e+02 2.891657440000000179e+02
5.002514785000000330e+01 5.002514785000000330e+01 5.002514785000000330e+01 5.002514785000000330e+01 5.002514785000000330e+01 5.002514785000000330e+01 5.002514785000000330e+01 5.002514785000000330e+01 5.002514785000000330e+01 5.002514785000000330e+01 5.002514785000000330e+01 5.002514785000000330e+01 5.002514785000000330e+01 5.002514785000000330e+01 5.002514785000000330e+01 5.002514785000000330e+01 5.002514785000000330e+01 5.002514785000000330e+01 5.002514785000000330e+01 5.002514785000000330e+01 5.002514785000000330e+01 5.002514785000000330e+01 5.002514785000000330e+01 5.002514785000000330e+01 5.002514785000000330e+01 5.002514785000000330e+01 5.002514785000000330e+01 5.002514785000000330e+01 5.002514785000000330e+01 5.002514785000000330e+01 5.002514785000000330e+01 5.002514785000000330e+01 5.002514785000000330e+01 5.002514785000000330e+01 5.002514785000000330e+01 5.002514785000000330e+01 5.002514785000000330e+01 5.002514785000000330e+01 5.002514785000000330e+01 5.002514785000000330e+01 5.002514785000000330e+01 5.002514785000000330e+01 5.002514785000000330e+01 5.002514785000000330e+01 5.002514785000000330e+01 5.002514785000000330e+01 5.002514785000000330e+01 5.002514785000000330e+01 5.002514785000000330e+01 5.002514785000000330e+01 5.002514785000000330e+01 5.002514785000000330e+01 5.002514785000000330e+01 5.002514785000000330e+01 5.002514785000000330e+01 5.002514785000000330e+01 5.002514785000000330e+01 5.002514785000000330e+01 5.002514785000000330e+01 5.002514785000000330e+01 5.002514785000000330e+01 5.002514785000000330e+01 5.002514785000000330e+01 5.002514785000000330e+01 5.002514785000000330e+01 5.002514785000000330e+01 5.002514785000000330e+01 5.002514785000000330e+01 5.002514785000000330e+01 5.002514785000000330e+01 5.002514785000000330e+01 5.002514785000000330e+01 5.002514785000000330e+01 5.002514785000000330e+01 5.002514785000000330e+01 5.002514785000000330e+01 5.002514785000000330e+01 5.002514785000000330e+01 5.002514785000000330e+01 5.002514785000000330e+01 5.002514785000000330e+01 5.002514785000000330e+01 5.002514785000000330e+01 5.002514785000000330e+01 5.002514785000000330e+01 5.002514785000000330e+01 5.002514785000000330e+01 5.002514785000000330e+01 5.002514785000000330e+01 5.002514785000000330e+01 5.002514785000000330e+01 5.002514785000000330e+01 5.002514785000000330e+01 5.002514785000000330e+01 5.002514785000000330e+01 5.002514785000000330e+01 5.002514785000000330e+01 5.002514785000000330e+01 5.002514785000000330e+01 5.002514785000000330e+01 5.002514785000000330e+01 5.002514785000000330e+01 5.002514785000000330e+01 5.002514785000000330e+01 5.002514785000000330e+01 5.002514785000000330e+01 5.002514785000000330e+01 5.002514785000000330e+01 5.002514785000000330e+01 5.002514785000000330e+01 5.002514785000000330e+01 5.002514785000000330e+01 5.002514785000000330e+01 5.002514785000000330e+01 5.002514785000000330e+01 5.002514785000000330e+01 5.002514785000000330e+01 5.002514785000000330e+01 5.002514785000000330e+01 5.002514785000000330e+01 5.002514785000000330e+01 5.002514785000000330e+01 5.002514785000000330e+01 5.002514785000000330e+01 5.002514785000000330e+01 5.002514785000000330e+01 5.002514785000000330e+01 5.002514785000000330e+01 5.002514785000000330e+01 5.002514785000000330e+01 5.002514785000000330e+01 5.002514785000000330e+01 5.002514785000000330e+01 5.002514785000000330e+01 5.002514785000000330e+01 5.002514785000000330e+01 5.002514785000000330e+01 5.002514785000000330e+01 5.002514785000000330e+01 5.002514785000000330e+01 5.002514785000000330e+01 5.002514785000000330e+01 5.002514785000000330e+01 5.002514785000000330e+01 5.002514785000000330e+01 5.002514785000000330e+01 5.002514785000000330e+01 5.002514785000000330e+01 5.002514785000000330e+01 5.002514785000000330e+01 5.002514785000000330e+01 5.002514785000000330e+01 5.002514785000000330e+01 5.002514785000000330e+01 5.002514785000000330e+01 5.002514785000000330e+01 5.002514785000000330e+01 5.002514785000000330e+01 5.002514785000000330e+01 5.002514785000000330e+01 5.002514785000000330e+01 5.002514785000000330e+01 5.002514785000000330e+01 5.002514785000000330e+01 5.002514785000000330e+01 5.002514785000000330e+01 5.002514785000000330e+01 5.002514785000000330e+01 5.002514785000000330e+01 5.002514785000000330e+01 5.002514785000000330e+01 5.002514785000000330e+01 5.002514785000000330e+01 5.002514785000000330e+01 5.002514785000000330e+01 5.002514785000000330e+01 5.002514785000000330e+01 3.655589110000000233e+02 3.083443570000000022e+02 3.527604420000000118e+02 3.113716220000000021e+02 3.457888239999999769e+02 3.169526660000000220e+02 3.335162280000000123e+02 3.193421749999999975e+02 3.740268310000000156e+02 3.035913820000000101e+02 3.731828629999999976e+02 2.826343660000000000e+02 3.803417680000000018e+02 3.210360590000000229e+02 3.678852880000000027e+02 2.839112870000000157e+02 3.450998829999999771e+02 3.127763990000000263e+02 3.503317910000000097e+02 3.177555489999999736e+02 3.799261109999999917e+02 3.146724489999999719e+02 3.592112900000000195e+02 2.974716379999999845e+02 3.322515680000000202e+02 2.739643019999999751e+02 3.272083700000000022e+02 3.101849320000000034e+02 3.566605180000000246e+02 2.869808059999999728e+02 3.447787500000000023e+02 3.008660340000000133e+02 3.325706989999999905e+02
6.939993407692307414e+01 6.939993407692307414e+01 6.939993407692307414e+01 6.939993407692307414e+01 6.939993407692307414e+01 6.939993407692307414e+01 6.939993407692307414e+01 6.939993407692307414e+01 6.939993407692307414e+01 6.939993407692307414e+01 6.939993407692307414e+01 6.939993407692307414e+01 6.939993407692307414e+01 6.939993407692307414e+01 6.939993407692307414e+01 6.939993407692307414e+01 6.939993407692307414e+01 6.939993407692307414e+01 6.939993407692307414e+01 6.939993407692307414e+01 6.939993407692307414e+01 6.939993407692307414e+01 6.939993407692307414e+01 6.939993407692307414e+01 6.939993407692307414e+01 6.939993407692307414e+01 6.939993407692307414e+01 6.939993407692307414e+01 6.939993407692307414e+01 6.939993407692307414e+01 6.939993407692307414e+01 6.939993407692307414e+01 6.939993407692307414e+01 6.939993407692307414e+01 6.939993407692307414e+01 6.939993407692307414e+01 6.939993407692307414e+01 6.939993407692307414e+01 6.939993407692307414e+01 6.939993407692307414e+01 6.939993407692307414e+01 6.939993407692307414e+01 6.939993407692307414e+01 6.939993407692307414e+01 6.939993407692307414e+01 6.939993407692307414e+01 6.939993407692307414e+01 6.939993407692307414e+01 6.939993407692307414e+01 6.939993407692307414e+01 6.939993407692307414e+01 6.939993407692307414e+01 6.939993407692307414e+01 6.939993407692307414e+01 6.939993407692307414e+01 6.939993407692307414e+01 6.939993407692307414e+01 6.939993407692307414e+01 6.939993407692307414e+01 6.939993407692307414e+01 6.939993407692307414e+01 6.939993407692307414e+01 6.939993407692307414e+01 6.939993407692307414e+01 6.939993407692307414e+01 6.939993407692307414e+01 6.939993407692307414e+01 6.939993407692307414e+01 6.939993407692307414e+01 6.939993407692307414e+01 6.939993407692307414e+01 6.939993407692307414e+01 6.939993407692307414e+01 6.939993407692307414e+01 6.939993407692307414e+01 6.939993407692307414e+01 6.939993407692307414e+01 6.939993407692307414e+01 6.939993407692307414e+01 6.939993407692307414e+01 6.939993407692307414e+01 6.939993407692307414e+01 6.939993407692307414e+01 6.939993407692307414e+01 6.939993407692307414e+01 6.939993407692307414e+01 6.939993407692307414e+01 6.939993407692307414e+01 6.939993407692307414e+01 6.939993407692307414e+01 6.939993407692307414e+01 6.939993407692307414e+01 6.939993407692307414e+01 6.939993407692307414e+01 6.939993407692307414e+01 6.939993407692307414e+01 6.939993407692307414e+01 6.939993407692307414e+01 6.939993407692307414e+01 6.939993407692307414e+01 6.939993407692307414e+01 6.939993407692307414e+01 6.939993407692307414e+01 6.939993407692307414e+01 6.939993407692307414e+01 6.939993407692307414e+01 6.939993407692307414e+01 6.939993407692307414e+01 6.939993407692307414e+01 6.939993407692307414e+01 6.939993407692307414e+01 6.939993407692307414e+01 6.939993407692307414e+01 6.939993407692307414e+01 6.939993407692307414e+01 6.939993407692307414e+01 6.939993407692307414e+01 6.939993407692307414e+01 6.939993407692307414e+01 6.939993407692307414e+01 6.939993407692307414e+01 6.939993407692307414e+01 6.939993407692307414e+01 6.939993407692307414e+01 6.939993407692307414e+01 6.939993407692307414e+01 6.939993407692307414e+01 6.939993407692307414e+01 6.939993407692307414e+01 6.939993407692307414e+01 6.939993407692307414e+01 6.939993407692307414e+01 6.939993407692307414e+01 6.939993407692307414e+01 6.939993407692307414e+01 6.939993407692307414e+01 6.939993407692307414e+01 6.939993407692307414e+01 6.939993407692307414e+01 6.939993407692307414e+01 6.939993407692307414e+01 6.939993407692307414e+01 6.939993407692307414e+01 6.939993407692307414e+01 6.939993407692307414e+01 6.939993407692307414e+01 6.939993407692307414e+01 6.939993407692307414e+01 6.939993407692307414e+01 6.939993407692307414e+01 6.939993407692307414e+01 6.939993407692307414e+01 6.939993407692307414e+01 6.939993407692307414e+01 6.939993407692307414e+01 6.939993407692307414e+01 6.939993407692307414e+01 6.939993407692307414e+01 6.939993407692307414e+01 6.939993407692307414e+01 6.939993407692307414e+01 6.939993407692307414e+01 6.939993407692307414e+01 6.939993407692307414e+01 6.939993407692307414e+01 6.939993407692307414e+01 6.939993407692307414e+01 6.939993407692307414e+01 6.939993407692307414e+01 6.939993407692307414e+01 6.939993407692307414e+01 6.939993407692307414e+01 6.939993407692307414e+01 6.939993407692307414e+01 6.939993407692307414e+01 6.939993407692307414e+01 6.939993407692307414e+01 2.653297230000000013e+02 2.257502010000000041e+02 2.456373670000000118e+02 2.261315439999999910e+02 2.440615479999999877e+02 2.236141650000000141e+02 2.397329960000000142e+02 2.222274229999999875e+02 2.595738789999999767e+02 2.190736499999999864e+02 2.619569339999999897e+02 1.955637360000000058e+02 2.763468930000000228e+02 2.359033489999999915e+02 2.579379779999999869e+02 2.072136999999999887e+02 2.452437079999999980e+02 2.210708869999999990e+02 2.504847619999999893e+02 2.305221899999999948e+02 2.704747810000000072e+02 2.265357720000000086e+02 2.477763199999999983e+02 2.089429890000000114e+02 2.502911819999999921e+02 1.853321899999999971e+02 2.246464970000000108e+02 2.202690230000000042e+02 2.451183870000000127e+02 2.033352950000000021e+02 2.468178120000000035e+02 2.115897860000000037e+02 2.303234339999999918e+02
5.330880588846154922e+01 5.330880588846154922e+01 5.330880588846154922e+01 5.330880588846154922e+01 5.330880588846154922e+01 5.330880588846154922e+01 5.330880588846154922e+01 5.330880588846154922e+01 5.330880588846154922e+01 5.330880588846154922e+01 5.330880588846154922e+01 5.330880588846154922e+01 5.330880588846154922e+01 5.330880588846154922e+01 5.330880588846154922e+01 5.330880588846154922e+01 5.330880588846154922e+01 5.330880588846154922e+01 5.330880588846154922e+01 5.330880588846154922e+01 5.330880588846154922e+01 5.330880588846154922e+01 5.330880588846154922e+01 5.330880588846154922e+01 5.330880588846154922e+01 5.330880588846154922e+01 5.330880588846154922e+01 5.330880588846154922e+01 5.330880588846154922e+01 5.330880588846154922e+01 5.330880588846154922e+01 5.330880588846154922e+01 5.330880588846154922e+01 5.330880588846154922e+01 5.330880588846154922e+01 5.330880588846154922e+01 5.330880588846154922e+01 5.330880588846154922e+01 5.330880588846154922e+01 5.330880588846154922e+01 5.330880588846154922e+01 5.330880588846154922e+01 5.330880588846154922e+01 5.330880588846154922e+01 5.330880588846154922e+01 5.330880588846154922e+01 5.330880588846154922e+01 5.330880588846154922e+01 5.330880588846154922e+01 5.330880588846154922e+01 5.330880588846154922e+01 5.330880588846154922e+01 5.330880588846154922e+01 5.330880588846154922e+01 5.330880588846154922e+01 5.330880588846154922e+01 5.330880588846154922e+01 5.330880588846154922e+01 5.330880588846154922e+01 5.330880588846154922e+01 5.330880588846154922e+01 5.330880588846154922e+01 5.330880588846154922e+01 5.330880588846154922e+01 5.330880588846154922e+01 5.330880588846154922e+01 5.330880588846154922e+01 5.330880588846154922e+01 5.330880588846154922e+01 5.330880588846154922e+01 5.330880588846154922e+01 5.330880588846154922e+01 5.330880588846154922e+01 5.330880588846154922e+01 5.330880588846154922e+01 5.330880588846154922e+01 5.330880588846154922e+01 5.330880588846154922e+01 5.330880588846154922e+01 5.330880588846154922e+01 5.330880588846154922e+01 5.330880588846154922e+01 5.330880588846154922e+01 5.330880588846154922e+01 5.330880588846154922e+01 5.330880588846154922e+01 5.330880588846154922e+01 5.330880588846154922e+01 5.330880588846154922e+01 5.330880588846154922e+01 5.330880588846154922e+01 5.330880588846154922e+01 5.330880588846154922e+01 5.330880588846154922e+01 5.330880588846154922e+01 5.330880588846154922e+01 5.330880588846154922e+01 5.330880588846154922e+01 5.330880588846154922e+01 5.330880588846154922e+01 5.330880588846154922e+01 5.330880588846154922e+01 5.330880588846154922e+01 5.330880588846154922e+01 5.330880588846154922e+01 5.330880588846154922e+01 5.330880588846154922e+01 5.330880588846154922e+01 5.330880588846154922e+01 5.330880588846154922e+01 5.330880588846154922e+01 5.330880588846154922e+01 5.330880588846154922e+01 5.330880588846154922e+01 5.330880588846154922e+01 5.330880588846154922e+01 5.330880588846154922e+01 5.330880588846154922e+01 5.330880588846154922e+01 5.330880588846154922e+01 5.330880588846154922e+01 5.330880588846154922e+01 5.330880588846154922e+01 5.330880588846154922e+01 5.330880588846154922e+01 5.330880588846154922e+01 5.330880588846154922e+01 5.330880588846154922e+01 5.330880588846154922e+01 5.330880588846154922e+01 5.330880588846154922e+01 5.330880588846154922e+01 5.330880588846154922e+01 5.330880588846154922e+01 5.330880588846154922e+01 5.330880588846154922e+01 5.330880588846154922e+01 5.330880588846154922e+01 5.330880588846154922e+01 5.330880588846154922e+01 5.330880588846154922e+01 5.330880588846154922e+01 5.330880588846154922e+01 5.330880588846154922e+01 5.330880588846154922e+01 5.330880588846154922e+01 5.330880588846154922e+01 5.330880588846154922e+01 5.330880588846154922e+01 5.330880588846154922e+01 5.330880588846154922e+01 5.330880588846154922e+01 5.330880588846154922e+01 5.330880588846154922e+01 5.330880588846154922e+01 5.330880588846154922e+01 5.330880588846154922e+01 5.330880588846154922e+01 5.330880588846154922e+01 5.330880588846154922e+01 5.330880588846154922e+01 5.330880588846154922e+01 5.330880588846154922e+01 5.330880588846154922e+01 5.330880588846154922e+01 5.330880588846154922e+01 5.330880588846154922e+01 5.330880588846154922e+01 5.330880588846154922e+01 5.330880588846154922e+01 5.330880588846154922e+01 5.330880588846154922e+01 5.330880588846154922e+01 5.330880588846154922e+01 5.330880588846154922e+01 5.330880588846154922e+01 5.330880588846154922e+01 3.569576759999999922e+02 3.077163449999999898e+02 3.365712040000000229e+02 3.071838880000000245e+02 3.334212309999999775e+02 3.048849799999999846e+02 3.325701369999999883e+02 3.074255830000000174e+02 3.519671379999999772e+02 3.054148710000000051e+02 3.676287810000000036e+02 2.805054170000000227e+02 3.659050359999999955e+02 3.218772399999999720e+02 3.561777539999999931e+02 2.777701700000000073e+02 3.311608580000000188e+02 2.999159789999999930e+02 3.468708169999999882e+02 3.048660090000000196e+02 3.644868389999999749e+02 2.986280060000000276e+02 3.396734549999999899e+02 2.820244910000000118e+02 3.256370909999999981e+02 2.579490920000000074e+02 3.174950299999999856e+02 2.916038199999999847e+02 3.341786989999999946e+02 2.715325869999999782e+02 3.380549669999999765e+02 2.923550399999999740e+02 3.126476819999999748e+02
2.546268707692307842e+01 2.546268707692307842e+01 2.546268707692307842e+01 2.546268707692307842e+01 2.546268707692307842e+01 2.546268707692307842e+01 2.546268707692307842e+01 2.546268707692307842e+01 2.546268707692307842e+01 2.546268707692307842e+01 2.546268707692307842e+01 2.546268707692307842e+01 2.546268707692307842e+01 2.546268707692307842e+01 2.546268707692307842e+01 2.546268707692307842e+01 2.546268707692307842e+01 2.546268707692307842e+01 2.546268707692307842e+01 2.546268707692307842e+01 2.546268707692307842e+01 2.546268707692307842e+01 2.546268707692307842e+01 2.546268707692307842e+01 2.546268707692307842e+01 2.546268707692307842e+01 2.546268707692307842e+01 2.546268707692307842e+01 2.546268707692307842e+01 2.546268707692307842e+01 2.546268707692307842e+01 2.546268707692307842e+01 2.546268707692307842e+01 2.546268707692307842e+01 2.546268707692307842e+01 2.546268707692307842e+01 2.546268707692307842e+01 2.546268707692307842e+01 2.546268707692307842e+01 2.546268707692307842e+01 2.546268707692307842e+01 2.546268707692307842e+01 2.546268707692307842e+01 2.546268707692307842e+01 2.546268707692307842e+01 2.546268707692307842e+01 2.546268707692307842e+01 2.546268707692307842e+01 2.546268707692307842e+01 2.546268707692307842e+01 2.546268707692307842e+01 2.546268707692307842e+01 2.546268707692307842e+01 2.546268707692307842e+01 2.546268707692307842e+01 2.546268707692307842e+01 2.546268707692307842e+01 2.546268707692307842e+01 2.546268707692307842e+01 2.546268707692307842e+01 2.546268707692307842e+01 2.546268707692307842e+01 2.546268707692307842e+01 2.546268707692307842e+01 2.546268707692307842e+01 2.546268707692307842e+01 2.546268707692307842e+01 2.546268707692307842e+01 2.546268707692307842e+01 2.546268707692307842e+01 2.546268707692307842e+01 2.546268707692307842e+01 2.546268707692307842e+01 2.546268707692307842e+01 2.546268707692307842e+01 2.546268707692307842e+01 2.546268707692307842e+01 2.546268707692307842e+01 2.546268707692307842e+01 2.546268707692307842e+01 2.546268707692307842e+01 2.546268707692307842e+01 2.546268707692307842e+01 2.546268707692307842e+01 2.546268707692307842e+01 2.546268707692307842e+01 2.546268707692307842e+01 2.546268707692307842e+01 2.546268707692307842e+01 2.546268707692307842e+01 2.546268707692307842e+01 2.546268707692307842e+01 2.546268707692307842e+01 2.546268707692307842e+01 2.546268707692307842e+01 2.546268707692307842e+01 2.546268707692307842e+01 2.546268707692307842e+01 2.546268707692307842e+01 2.546268707692307842e+01 2.546268707692307842e+01 2.546268707692307842e+01 2.546268707692307842e+01 2.546268707692307842e+01 2.546268707692307842e+01 2.546268707692307842e+01 2.546268707692307842e+01 2.546268707692307842e+01 2.546268707692307842e+01 2.546268707692307842e+01 2.546268707692307842e+01 2.546268707692307842e+01 2.546268707692307842e+01 2.546268707692307842e+01 2.546268707692307842e+01 2.546268707692307842e+01 2.546268707692307842e+01 2.546268707692307842e+01 2.546268707692307842e+01 2.546268707692307842e+01 2.546268707692307842e+01 2.546268707692307842e+01 2.546268707692307842e+01 2.546268707692307842e+01 2.546268707692307842e+01 2.546268707692307842e+01 2.546268707692307842e+01 2.546268707692307842e+01 2.546268707692307842e+01 2.546268707692307842e+01 2.546268707692307842e+01 2.546268707692307842e+01 2.546268707692307842e+01 2.546268707692307842e+01 2.546268707692307842e+01 2.546268707692307842e+01 2.546268707692307842e+01 2.546268707692307842e+01 2.546268707692307842e+01 2.546268707692307842e+01 2.546268707692307842e+01 2.546268707692307842e+01 2.546268707692307842e+01 2.546268707692307842e+01 2.546268707692307842e+01 2.546268707692307842e+01 2.546268707692307842e+01 2.546268707692307842e+01 2.546268707692307842e+01 2.546268707692307842e+01 2.546268707692307842e+01 2.546268707692307842e+01 2.546268707692307842e+01 2.546268707692307842e+01 2.546268707692307842e+01 2.546268707692307842e+01 2.546268707692307842e+01 2.546268707692307842e+01 2.546268707692307842e+01 2.546268707692307842e+01 2.546268707692307842e+01 2.546268707692307842e+01 2.546268707692307842e+01 2.546268707692307842e+01 2.546268707692307842e+01 2.546268707692307842e+01 2.546268707692307842e+01 2.546268707692307842e+01 2.546268707692307842e+01 2.546268707692307842e+01 2.546268707692307842e+01 2.546268707692307842e+01 2.546268707692307842e+01 2.546268707692307842e+01 2.546268707692307842e+01 2.546268707692307842e+01 2.546268707692307842e+01 3.103914899999999761e+02 2.524744660000000067e+02 2.902305590000000279e+02 2.524350900000000024e+02 2.836050480000000107e+02 2.513827740000000119e+02 2.815907450000000267e+02 2.549043460000000039e+02 3.037087490000000116e+02 2.557994640000000004e+02 3.196883349999999950e+02 2.273014990000000068e+02 3.167769270000000006e+02 2.626740950000000225e+02 3.013698860000000082e+02 2.273497830000000022e+02 2.810007200000000012e+02 2.462044469999999876e+02 2.961705170000000180e+02 2.516918129999999962e+02 3.184075540000000046e+02 2.460160930000000121e+02 2.941566930000000184e+02 2.300395200000000102e+02 2.755132179999999948e+02 2.046976290000000063e+02 2.706174449999999752e+02 2.393530839999999955e+02 2.888748909999999910e+02 2.171036389999999869e+02 2.847172820000000115e+02 2.458334020000000066e+02 2.677565000000000168e+02
6.420384154615383920e+01 6.420384154615383920e+01 6.420384154615383920e+01 6.420384154615383920e+01 6.420384154615383920e+01 6.420384154615383920e+01 6.420384154615383920e+01 6.420384154615383920e+01 6.420384154615383920e+01 6.420384154615383920e+01 6.420384154615383920e+01 6.420384154615383920e+01 6.420384154615383920e+01 6.420384154615383920e+01 6.420384154615383920e+01 6.420384154615383920e+01 6.420384154615383920e+01 6.420384154615383920e+01 6.420384154615383920e+01 6.420384154615383920e+01 6.420384154615383920e+01 6.420384154615383920e+01 6.420384154615383920e+01 6.420384154615383920e+01 6.420384154615383920e+01 6.420384154615383920e+01 6.420384154615383920e+01 6.420384154615383920e+01 6.420384154615383920e+01 6.420384154615383920e+01 6.420384154615383920e+01 6.420384154615383920e+01 6.420384154615383920e+01 6.420384154615383920e+01 6.420384154615383920e+01 6.420384154615383920e+01 6.420384154615383920e+01 6.420384154615383920e+01 6.420384154615383920e+01 6.420384154615383920e+01 6.420384154615383920e+01 6.420384154615383920e+01 6.420384154615383920e+01 6.420384154615383920e+01 6.420384154615383920e+01 6.420384154615383920e+01 6.420384154615383920e+01 6.420384154615383920e+01 6.420384154615383920e+01 6.420384154615383920e+01 6.420384154615383920e+01 6.420384154615383920e+01 6.420384154615383920e+01 6.420384154615383920e+01 6.420384154615383920e+01 6.420384154615383920e+01 6.420384154615383920e+01 6.420384154615383920e+01 6.420384154615383920e+01 6.420384154615383920e+01 6.420384154615383920e+01 6.420384154615383920e+01 6.420384154615383920e+01 6.420384154615383920e+01 6.420384154615383920e+01 6.420384154615383920e+01 6.420384154615383920e+01 6.420384154615383920e+01 6.420384154615383920e+01 6.420384154615383920e+01 6.420384154615383920e+01 6.420384154615383920e+01 6.420384154615383920e+01 6.420384154615383920e+01 6.420384154615383920e+01 6.420384154615383920e+01 6.420384154615383920e+01 6.420384154615383920e+01 6.420384154615383920e+01 6.420384154615383920e+01 6.420384154615383920e+01 6.420384154615383920e+01 6.420384154615383920e+01 6.420384154615383920e+01 6.420384154615383920e+01 6.420384154615383920e+01 6.420384154615383920e+01 6.420384154615383920e+01 6.420384154615383920e+01 6.420384154615383920e+01 6.420384154615383920e+01 6.420384154615383920e+01 6.420384154615383920e+01 6.420384154615383920e+01 6.420384154615383920e+01 6.420384154615383920e+01 6.420384154615383920e+01 6.420384154615383920e+01 6.420384154615383920e+01 6.420384154615383920e+01 6.420384154615383920e+01 6.420384154615383920e+01 6.420384154615383920e+01 6.420384154615383920e+01 6.420384154615383920e+01 6.420384154615383920e+01 6.420384154615383920e+01 6.420384154615383920e+01 6.420384154615383920e+01 6.420384154615383920e+01 6.420384154615383920e+01 6.420384154615383920e+01 6.420384154615383920e+01 6.420384154615383920e+01 6.420384154615383920e+01 6.420384154615383920e+01 6.420384154615383920e+01 6.420384154615383920e+01 6.420384154615383920e+01 6.420384154615383920e+01 6.420384154615383920e+01 6.420384154615383920e+01 6.420384154615383920e+01 6.420384154615383920e+01 6.420384154615383920e+01 6.420384154615383920e+01 6.420384154615383920e+01 6.420384154615383920e+01 6.420384154615383920e+01 6.420384154615383920e+01 6.420384154615383920e+01 6.420384154615383920e+01 6.420384154615383920e+01 6.420384154615383920e+01 6.420384154615383920e+01 6.420384154615383920e+01 6.420384154615383920e+01 6.420384154615383920e+01 6.420384154615383920e+01 6.420384154615383920e+01 6.420384154615383920e+01 6.420384154615383920e+01 6.420384154615383920e+01 6.420384154615383920e+01 6.420384154615383920e+01 6.420384154615383920e+01 6.420384154615383920e+01 6.420384154615383920e+01 6.420384154615383920e+01 6.420384154615383920e+01 6.420384154615383920e+01 6.420384154615383920e+01 6.420384154615383920e+01 6.420384154615383920e+01 6.420384154615383920e+01 6.420384154615383920e+01 6.420384154615383920e+01 6.420384154615383920e+01 6.420384154615383920e+01 6.420384154615383920e+01 6.420384154615383920e+01 6.420384154615383920e+01 6.420384154615383920e+01 6.420384154615383920e+01 6.420384154615383920e+01 6.420384154615383920e+01 6.420384154615383920e+01 6.420384154615383920e+01 6.420384154615383920e+01 6.420384154615383920e+01 6.420384154615383920e+01 6.420384154615383920e+01 6.420384154615383920e+01 6.420384154615383920e+01 6.420384154615383920e+01 6.420384154615383920e+01 6.420384154615383920e+01 3.267085020000000100e+02 2.602611340000000268e+02 3.033017389999999978e+02 2.778400750000000130e+02 3.087168130000000019e+02 2.839227060000000051e+02 2.889906720000000178e+02 2.790601889999999798e+02 3.251668769999999995e+02 2.642904449999999770e+02 3.238504929999999717e+02 2.448869819999999891e+02 3.251682180000000244e+02 2.893626709999999775e+02 3.175263899999999921e+02 2.642807599999999866e+02 2.981517690000000016e+02 2.810687819999999988e+02 3.031388900000000035e+02 2.760721480000000270e+02 3.335906259999999861e+02 2.736135649999999941e+02 3.086977729999999838e+02 2.646963999999999828e+02 2.792214460000000145e+02 2.432408540000000130e+02 2.946903159999999957e+02 2.718245239999999967e+02 3.117304020000000264e+02 2.641789999999999736e+02 3.012358280000000263e+02 2.635059449999999970e+02 2.827934440000000222e+02
5.023691157307692379e+01 5.023691157307692379e+01 5.023691157307692379e+01 5.023691157307692379e+01 5.023691157307692379e+01 5.023691157307692379e+01 5.023691157307692379e+01 5.023691157307692379e+01 5.023691157307692379e+01 5.023691157307692379e+01 5.023691157307692379e+01 5.023691157307692379e+01 5.023691157307692379e+01 5.023691157307692379e+01 5.023691157307692379e+01 5.023691157307692379e+01 5.023691157307692379e+01 5.023691157307692379e+01 5.023691157307692379e+01 5.023691157307692379e+01 5.023691157307692379e+01 5.023691157307692379e+01 5.023691157307692379e+01 5.023691157307692379e+01 5.023691157307692379e+01 5.023691157307692379e+01 5.023691157307692379e+01 5.023691157307692379e+01 5.023691157307692379e+01 5.023691157307692379e+01 5.023691157307692379e+01 5.023691157307692379e+01 5.023691157307692379e+01 5.023691157307692379e+01 5.023691157307692379e+01 5.023691157307692379e+01 5.023691157307692379e+01 5.023691157307692379e+01 5.023691157307692379e+01 5.023691157307692379e+01 5.023691157307692379e+01 5.023691157307692379e+01 5.023691157307692379e+01 5.023691157307692379e+01 5.023691157307692379e+01 5.023691157307692379e+01 5.023691157307692379e+01 5.023691157307692379e+01 5.023691157307692379e+01 5.023691157307692379e+01 5.023691157307692379e+01 5.023691157307692379e+01 5.023691157307692379e+01 5.023691157307692379e+01 5.023691157307692379e+01 5.023691157307692379e+01 5.023691157307692379e+01 5.023691157307692379e+01 5.023691157307692379e+01 5.023691157307692379e+01 5.023691157307692379e+01 5.023691157307692379e+01 5.023691157307692379e+01 5.023691157307692379e+01 5.023691157307692379e+01 5.023691157307692379e+01 5.023691157307692379e+01 5.023691157307692379e+01 5.023691157307692379e+01 5.023691157307692379e+01 5.023691157307692379e+01 5.023691157307692379e+01 5.023691157307692379e+01 5.023691157307692379e+01 5.023691157307692379e+01 5.023691157307692379e+01 5.023691157307692379e+01 5.023691157307692379e+01 5.023691157307692379e+01 5.023691157307692379e+01 5.023691157307692379e+01 5.023691157307692379e+01 5.023691157307692379e+01 5.023691157307692379e+01 5.023691157307692379e+01 5.023691157307692379e+01 5.023691157307692379e+01 5.023691157307692379e+01 5.023691157307692379e+01 5.023691157307692379e+01 5.023691157307692379e+01 5.023691157307692379e+01 5.023691157307692379e+01 5.023691157307692379e+01 5.023691157307692379e+01 5.023691157307692379e+01 5.023691157307692379e+01 5.023691157307692379e+01 5.023691157307692379e+01 5.023691157307692379e+01 5.023691157307692379e+01 5.023691157307692379e+01 5.023691157307692379e+01 5.023691157307692379e+01 5.023691157307692379e+01 5.023691157307692379e+01 5.023691157307692379e+01 5.023691157307692379e+01 5.023691157307692379e+01 5.023691157307692379e+01 5.023691157307692379e+01 5.023691157307692379e+01 5.023691157307692379e+01 5.023691157307692379e+01 5.023691157307692379e+01 5.023691157307692379e+01 5.023691157307692379e+01 5.023691157307692379e+01 5.023691157307692379e+01 5.023691157307692379e+01 5.023691157307692379e+01 5.023691157307692379e+01 5.023691157307692379e+01 5.023691157307692379e+01 5.023691157307692379e+01 5.023691157307692379e+01 5.023691157307692379e+01 5.023691157307692379e+01 5.023691157307692379e+01 5.023691157307692379e+01 5.023691157307692379e+01 5.023691157307692379e+01 5.023691157307692379e+01 5.023691157307692379e+01 5.023691157307692379e+01 5.023691157307692379e+01 5.023691157307692379e+01 5.023691157307692379e+01 5.023691157307692379e+01 5.023691157307692379e+01 5.023691157307692379e+01 5.023691157307692379e+01 5.023691157307692379e+01 5.023691157307692379e+01 5.023691157307692379e+01 5.023691157307692379e+01 5.023691157307692379e+01 5.023691157307692379e+01 5.023691157307692379e+01 5.023691157307692379e+01 5.023691157307692379e+01 5.023691157307692379e+01 5.023691157307692379e+01 5.023691157307692379e+01 5.023691157307692379e+01 5.023691157307692379e+01 5.023691157307692379e+01 5.023691157307692379e+01 5.023691157307692379e+01 5.023691157307692379e+01 5.023691157307692379e+01 5.023691157307692379e+01 5.023691157307692379e+01 5.023691157307692379e+01 5.023691157307692379e+01 5.023691157307692379e+01 5.023691157307692379e+01 5.023691157307692379e+01 5.023691157307692379e+01 5.023691157307692379e+01 5.023691157307692379e+01 5.023691157307692379e+01 5.023691157307692379e+01 5.023691157307692379e+01 5.023691157307692379e+01 5.023691157307692379e+01 5.023691157307692379e+01 3.739333409999999844e+02 3.309318440000000123e+02 3.734200779999999895e+02 3.297375729999999976e+02 3.673260930000000144e+02 3.325409099999999967e+02 3.475993429999999762e+02 3.317908830000000080e+02 3.757358540000000175e+02 3.325919690000000060e+02 3.719748809999999821e+02 3.102062879999999723e+02 3.989636889999999880e+02 3.361596690000000081e+02 3.815335249999999974e+02 3.127070439999999962e+02 3.549951720000000250e+02 3.364361369999999738e+02 3.606371659999999792e+02 3.423198429999999917e+02 3.842935200000000009e+02 3.433243459999999914e+02 3.604995509999999967e+02 3.216575569999999971e+02 3.611021680000000060e+02 2.857712520000000040e+02 3.406106540000000109e+02 3.327349019999999769e+02 3.619638009999999895e+02 3.205270830000000046e+02 3.553285549999999944e+02 3.306416039999999725e+02 3.418831490000000031e+02
6.572800876923078128e+00 6.572800876923078128e+00 6.572800876923078128e+00 6.572800876923078128e+00 6.572800876923078128e+00 6.572800876923078128e+00 6.572800876923078128e+00 6.572800876923078128e+00 6.572800876923078128e+00 6.572800876923078128e+00 6.572800876923078128e+00 6.572800876923078128e+00 6.572800876923078128e+00 6.572800876923078128e+00 6.572800876923078128e+00 6.572800876923078128e+00 6.572800876923078128e+00 6.572800876923078128e+00 6.572800876923078128e+00 6.572800876923078128e+00 6.572800876923078128e+00 6.572800876923078128e+00 6.572800876923078128e+00 6.572800876923078128e+00 6.572800876923078128e+00 6.572800876923078128e+00 6.572800876923078128e+00 6.572800876923078128e+00 6.572800876923078128e+00 6.572800876923078128e+00 6.572800876923078128e+00 6.572800876923078128e+00 6.572800876923078128e+00 6.572800876923078128e+00 6.572800876923078128e+00 6.572800876923078128e+00 6.572800876923078128e+00 6.572800876923078128e+00 6.572800876923078128e+00 6.572800876923078128e+00 6.572800876923078128e+00 6.572800876923078128e+00 6.572800876923078128e+00 6.572800876923078128e+00 6.572800876923078128e+00 6.572800876923078128e+00 6.572800876923078128e+00 6.572800876923078128e+00 6.572800876923078128e+00 6.572800876923078128e+00 6.572800876923078128e+00 6.572800876923078128e+00 6.572800876923078128e+00 6.572800876923078128e+00 6.572800876923078128e+00 6.572800876923078128e+00 6.572800876923078128e+00 6.572800876923078128e+00 6.572800876923078128e+00 6.572800876923078128e+00 6.572800876923078128e+00 6.572800876923078128e+00 6.572800876923078128e+00 6.572800876923078128e+00 6.572800876923078128e+00 6.572800876923078128e+00 6.572800876923078128e+00 6.572800876923078128e+00 6.572800876923078128e+00 6.572800876923078128e+00 6.572800876923078128e+00 6.572800876923078128e+00 6.572800876923078128e+00 6.572800876923078128e+00 6.572800876923078128e+00 6.572800876923078128e+00 6.572800876923078128e+00 6.572800876923078128e+00 6.572800876923078128e+00 6.572800876923078128e+00 6.572800876923078128e+00 6.572800876923078128e+00 6.572800876923078128e+00 6.572800876923078128e+00 6.572800876923078128e+00 6.572800876923078128e+00 6.572800876923078128e+00 6.572800876923078128e+00 6.572800876923078128e+00 6.572800876923078128e+00 6.572800876923078128e+00 6.572800876923078128e+00 6.572800876923078128e+00 6.572800876923078128e+00 6.572800876923078128e+00 6.572800876923078128e+00 6.572800876923078128e+00 6.572800876923078128e+00 6.572800876923078128e+00 6.572800876923078128e+00 6.572800876923078128e+00 6.572800876923078128e+00 6.572800876923078128e+00 6.572800876923078128e+00 6.572800876923078128e+00 6.572800876923078128e+00 6.572800876923078128e+00 6.572800876923078128e+00 6.572800876923078128e+00 6.572800876923078128e+00 6.572800876923078128e+00 6.572800876923078128e+00 6.572800876923078128e+00 6.572800876923078128e+00 6.572800876923078128e+00 6.572800876923078128e+00 6.572800876923078128e+00 6.572800876923078128e+00 6.572800876923078128e+00 6.572800876923078128e+00 6.572800876923078128e+00 6.572800876923078128e+00 6.572800876923078128e+00 6.572800876923078128e+00 6.572800876923078128e+00 6.572800876923078128e+00 6.572800876923078128e+00 6.572800876923078128e+00 6.572800876923078128e+00 6.572800876923078128e+00 6.572800876923078128e+00 6.572800876923078128e+00 6.572800876923078128e+00 6.572800876923078128e+00 6.572800876923078128e+00 6.572800876923078128e+00 6.572800876923078128e+00 6.572800876923078128e+00 6.572800876923078128e+00 6.572800876923078128e+00 6.572800876923078128e+00 6.572800876923078128e+00 6.572800876923078128e+00 6.572800876923078128e+00 6.572800876923078128e+00 6.572800876923078128e+00 6.572800876923078128e+00 6.572800876923078128e+00 6.572800876923078128e+00 6.572800876923078128e+00 6.572800876923078128e+00 6.572800876923078128e+00 6.572800876923078128e+00 6.572800876923078128e+00 6.572800876923078128e+00 6.572800876923078128e+00 6.572800876923078128e+00 6.572800876923078128e+00 6.572800876923078128e+00 6.572800876923078128e+00 6.572800876923078128e+00 6.572800876923078128e+00 6.572800876923078128e+00 6.572800876923078128e+00 6.572800876923078128e+00 6.572800876923078128e+00 6.572800876923078128e+00 6.572800876923078128e+00 6.572800876923078128e+00 6.572800876923078128e+00 6.572800876923078128e+00 6.572800876923078128e+00 6.572800876923078128e+00 6.572800876923078128e+00 6.572800876923078128e+00 6.572800876923078128e+00 6.572800876923078128e+00 4.391552340000000072e+02 4.008204420000000141e+02 4.164870480000000157e+02 3.955759620000000041e+02 4.301778310000000261e+02 3.870514759999999796e+02 4.234715090000000259e+02 3.936064089999999851e+02 4.289777010000000246e+02 3.868650390000000243e+02 4.446848669999999970e+02 3.616335119999999961e+02 4.695265319999999747e+02 4.106092439999999897e+02 4.417647319999999809e+02 3.637485800000000040e+02 4.189474569999999858e+02 3.897066960000000222e+02 4.284180640000000153e+02 4.075011509999999930e+02 4.563186380000000213e+02 3.974358189999999809e+02 4.328592209999999909e+02 3.671217449999999758e+02 4.385621820000000071e+02 3.457166960000000131e+02 3.950237010000000168e+02 3.845947429999999940e+02 4.220005770000000211e+02 3.691126610000000028e+02 4.224543639999999982e+02 3.835313719999999762e+02 4.111839749999999754e+02
1.966293291538461574e+01 1.966293291538461574e+01 1.966293291538461574e+01 1.966293291538461574e+01 1.966293291538461574e+01 1.966293291538461574e+01 1.966293291538461574e+01 1.966293291538461574e+01 1.966293291538461574e+01 1.966293291538461574e+01 1.966293291538461574e+01 1.966293291538461574e+01 1.966293291538461574e+01 1.966293291538461574e+01 1.966293291538461574e+01 1.966293291538461574e+01 1.966293291538461574e+01 1.966293291538461574e+01 1.966293291538461574e+01 1.966293291538461574e+01 1.966293291538461574e+01 1.966293291538461574e+01 1.966293291538461574e+01 1.966293291538461574e+01 1.966293291538461574e+01 1.966293291538461574e+01 1.966293291538461574e+01 1.966293291538461574e+01 1.966293291538461574e+01 1.966293291538461574e+01 1.966293291538461574e+01 1.966293291538461574e+01 1.966293291538461574e+01 1.966293291538461574e+01 1.966293291538461574e+01 1.966293291538461574e+01 1.966293291538461574e+01 1.966293291538461574e+01 1.966293291538461574e+01 1.966293291538461574e+01 1.966293291538461574e+01 1.966293291538461574e+01 1.966293291538461574e+01 1.966293291538461574e+01 1.966293291538461574e+01 1.966293291538461574e+01 1.966293291538461574e+01 1.966293291538461574e+01 1.966293291538461574e+01 1.966293291538461574e+01 1.966293291538461574e+01 1.966293291538461574e+01 1.966293291538461574e+01 1.966293291538461574e+01 1.966293291538461574e+01 1.966293291538461574e+01 1.966293291538461574e+01 1.966293291538461574e+01 1.966293291538461574e+01 1.966293291538461574e+01 1.966293291538461574e+01 1.966293291538461574e+01 1.966293291538461574e+01 1.966293291538461574e+01 1.966293291538461574e+01 1.966293291538461574e+01 1.966293291538461574e+01 1.966293291538461574e+01 1.966293291538461574e+01 1.966293291538461574e+01 1.966293291538461574e+01 1.966293291538461574e+01 1.966293291538461574e+01 1.966293291538461574e+01 1.966293291538461574e+01 1.966293291538461574e+01 1.966293291538461574e+01 1.966293291538461574e+01 1.966293291538461574e+01 1.966293291538461574e+01 1.966293291538461574e+01 1.966293291538461574e+01 1.966293291538461574e+01 1.966293291538461574e+01 1.966293291538461574e+01 1.966293291538461574e+01 1.966293291538461574e+01 1.966293291538461574e+01 1.966293291538461574e+01 1.966293291538461574e+01 1.966293291538461574e+01 1.966293291538461574e+01 1.966293291538461574e+01 1.966293291538461574e+01 1.966293291538461574e+01 1.966293291538461574e+01 1.966293291538461574e+01 1.966293291538461574e+01 1.966293291538461574e+01 1.966293291538461574e+01 1.966293291538461574e+01 1.966293291538461574e+01 1.966293291538461574e+01 1.966293291538461574e+01 1.966293291538461574e+01 1.966293291538461574e+01 1.966293291538461574e+01 1.966293291538461574e+01 1.966293291538461574e+01 1.966293291538461574e+01 1.966293291538461574e+01 1.966293291538461574e+01 1.966293291538461574e+01 1.966293291538461574e+01 1.966293291538461574e+01 1.966293291538461574e+01 1.966293291538461574e+01 1.966293291538461574e+01 1.966293291538461574e+01 1.966293291538461574e+01 1.966293291538461574e+01 1.966293291538461574e+01 1.966293291538461574e+01 1.966293291538461574e+01 1.966293291538461574e+01 1.966293291538461574e+01 1.966293291538461574e+01 1.966293291538461574e+01 1.966293291538461574e+01 1.966293291538461574e+01 1.966293291538461574e+01 1.966293291538461574e+01 1.966293291538461574e+01 1.966293291538461574e+01 1.966293291538461574e+01 1.966293291538461574e+01 1.966293291538461574e+01 1.966293291538461574e+01 1.966293291538461574e+01 1.966293291538461574e+01 1.966293291538461574e+01 1.966293291538461574e+01 1.966293291538461574e+01 1.966293291538461574e+01 1.966293291538461574e+01 1.966293291538461574e+01 1.966293291538461574e+01 1.966293291538461574e+01 1.966293291538461574e+01 1.966293291538461574e+01 1.966293291538461574e+01 1.966293291538461574e+01 1.966293291538461574e+01 1.966293291538461574e+01 1.966293291538461574e+01 1.966293291538461574e+01 1.966293291538461574e+01 1.966293291538461574e+01 1.966293291538461574e+01 1.966293291538461574e+01 1.966293291538461574e+01 1.966293291538461574e+01 1.966293291538461574e+01 1.966293291538461574e+01 1.966293291538461574e+01 1.966293291538461574e+01 1.966293291538461574e+01 1.966293291538461574e+01 1.966293291538461574e+01 1.966293291538461574e+01 1.966293291538461574e+01 1.966293291538461574e+01 1.966293291538461574e+01 1.966293291538461574e+01 1.966293291538461574e+01 1.966293291538461574e+01 1.966293291538461574e+01 4.529524809999999775e+02 4.152922370000000001e+02 4.271003180000000157e+02 4.060917400000000157e+02 4.350862859999999728e+02 4.031163000000000238e+02 4.299761839999999893e+02 4.020923569999999927e+02 4.409503379999999879e+02 3.971292030000000182e+02 4.545159479999999803e+02 3.732547769999999900e+02 4.731743010000000140e+02 4.270830100000000016e+02 4.489391739999999800e+02 3.781078499999999849e+02 4.306228730000000269e+02 4.017969370000000140e+02 4.398245000000000005e+02 4.131542630000000145e+02 4.653651590000000056e+02 4.073644659999999931e+02 4.386930980000000204e+02 3.786558259999999905e+02 4.410935190000000148e+02 3.598188579999999774e+02 4.051258020000000215e+02 3.948755580000000123e+02 4.305046740000000227e+02 3.784304619999999773e+02 4.336808599999999956e+02 3.912924110000000155e+02 4.144868210000000204e+02
1.265237363076922961e+01 1.265237363076922961e+01 1.265237363076922961e+01 1.265237363076922961e+01 1.265237363076922961e+01 1.265237363076922961e+01 1.265237363076922961e+01 1.265237363076922961e+01 1.265237363076922961e+01 1.265237363076922961e+01 1.265237363076922961e+01 1.265237363076922961e+01 1.265237363076922961e+01 1.265237363076922961e+01 1.265237363076922961e+01 1.265237363076922961e+01 1.265237363076922961e+01 1.265237363076922961e+01 1.265237363076922961e+01 1.265237363076922961e+01 1.265237363076922961e+01 1.265237363076922961e+01 1.265237363076922961e+01 1.265237363076922961e+01 1.265237363076922961e+01 1.265237363076922961e+01 1.265237363076922961e+01 1.265237363076922961e+01 1.265237363076922961e+01 1.265237363076922961e+01 1.265237363076922961e+01 1.265237363076922961e+01 1.265237363076922961e+01 1.265237363076922961e+01 1.265237363076922961e+01 1.265237363076922961e+01 1.265237363076922961e+01 1.265237363076922961e+01 1.265237363076922961e+01 1.265237363076922961e+01 1.265237363076922961e+01 1.265237363076922961e+01 1.265237363076922961e+01 1.265237363076922961e+01 1.265237363076922961e+01 1.265237363076922961e+01 1.265237363076922961e+01 1.265237363076922961e+01 1.265237363076922961e+01 1.265237363076922961e+01 1.265237363076922961e+01 1.265237363076922961e+01 1.265237363076922961e+01 1.265237363076922961e+01 1.265237363076922961e+01 1.265237363076922961e+01 1.265237363076922961e+01 1.265237363076922961e+01 1.265237363076922961e+01 1.265237363076922961e+01 1.265237363076922961e+01 1.265237363076922961e+01 1.265237363076922961e+01 1.265237363076922961e+01 1.265237363076922961e+01 1.265237363076922961e+01 1.265237363076922961e+01 1.265237363076922961e+01 1.265237363076922961e+01 1.265237363076922961e+01 1.265237363076922961e+01 1.265237363076922961e+01 1.265237363076922961e+01 1.265237363076922961e+01 1.265237363076922961e+01 1.265237363076922961e+01 1.265237363076922961e+01 1.265237363076922961e+01 1.265237363076922961e+01 1.265237363076922961e+01 1.265237363076922961e+01 1.265237363076922961e+01 1.265237363076922961e+01 1.265237363076922961e+01 1.265237363076922961e+01 1.265237363076922961e+01 1.265237363076922961e+01 1.265237363076922961e+01 1.265237363076922961e+01 1.265237363076922961e+01 1.265237363076922961e+01 1.265237363076922961e+01 1.265237363076922961e+01 1.265237363076922961e+01 1.265237363076922961e+01 1.265237363076922961e+01 1.265237363076922961e+01 1.265237363076922961e+01 1.265237363076922961e+01 1.265237363076922961e+01 1.265237363076922961e+01 1.265237363076922961e+01 1.265237363076922961e+01 1.265237363076922961e+01 1.265237363076922961e+01 1.265237363076922961e+01 1.265237363076922961e+01 1.265237363076922961e+01 1.265237363076922961e+01 1.265237363076922961e+01 1.265237363076922961e+01 1.265237363076922961e+01 1.265237363076922961e+01 1.265237363076922961e+01 1.265237363076922961e+01 1.265237363076922961e+01 1.265237363076922961e+01 1.265237363076922961e+01 1.265237363076922961e+01 1.265237363076922961e+01 1.265237363076922961e+01 1.265237363076922961e+01 1.265237363076922961e+01 1.265237363076922961e+01 1.265237363076922961e+01 1.265237363076922961e+01 1.265237363076922961e+01 1.265237363076922961e+01 1.265237363076922961e+01 1.265237363076922961e+01 1.265237363076922961e+01 1.265237363076922961e+01 1.265237363076922961e+01 1.265237363076922961e+01 1.265237363076922961e+01 1.265237363076922961e+01 1.265237363076922961e+01 1.265237363076922961e+01 1.265237363076922961e+01 1.265237363076922961e+01 1.265237363076922961e+01 1.265237363076922961e+01 1.265237363076922961e+01 1.265237363076922961e+01 1.265237363076922961e+01 1.265237363076922961e+01 1.265237363076922961e+01 1.265237363076922961e+01 1.265237363076922961e+01 1.265237363076922961e+01 1.265237363076922961e+01 1.265237363076922961e+01 1.265237363076922961e+01 1.265237363076922961e+01 1.265237363076922961e+01 1.265237363076922961e+01 1.265237363076922961e+01 1.265237363076922961e+01 1.265237363076922961e+01 1.265237363076922961e+01 1.265237363076922961e+01 1.265237363076922961e+01 1.265237363076922961e+01 1.265237363076922961e+01 1.265237363076922961e+01 1.265237363076922961e+01 1.265237363076922961e+01 1.265237363076922961e+01 1.265237363076922961e+01 1.265237363076922961e+01 1.265237363076922961e+01 1.265237363076922961e+01 1.265237363076922961e+01 1.265237363076922961e+01 1.265237363076922961e+01 1.265237363076922961e+01 1.265237363076922961e+01 5.643390369999999621e+02 5.250960370000000239e+02 5.409908910000000333e+02 5.223197900000000118e+02 5.426621360000000323e+02 5.200150810000000092e+02 5.408940330000000358e+02 5.161459360000000061e+02 5.557825269999999591e+02 5.143907679999999800e+02 5.664023240000000214e+02 4.901348280000000273e+02 5.763691229999999450e+02 5.411727640000000292e+02 5.609622470000000476e+02 4.974013889999999947e+02 5.428023670000000038e+02 5.152774799999999686e+02 5.506133559999999534e+02 5.202543670000000020e+02 5.717931569999999510e+02 5.168056109999999990e+02 5.445273770000000013e+02 4.961755790000000275e+02 5.427196360000000368e+02 4.740929150000000050e+02 5.215123429999999871e+02 5.090151070000000004e+02 5.423359130000000050e+02 4.916925239999999917e+02 5.472404070000000047e+02 5.032826850000000150e+02 5.212897259999999733e+02
1.030466432307692237e+01 1.030466432307692237e+01 1.030466432307692237e+01 1.030466432307692237e+01 1.030466432307692237e+01 1.030466432307692237e+01 1.030466432307692237e+01 1.030466432307692237e+01 1.030466432307692237e+01 1.030466432307692237e+01 1.030466432307692237e+01 1.030466432307692237e+01 1.030466432307692237e+01 1.030466432307692237e+01 1.030466432307692237e+01 1.030466432307692237e+01 1.030466432307692237e+01 1.030466432307692237e+01 1.030466432307692237e+01 1.030466432307692237e+01 1.030466432307692237e+01 1.030466432307692237e+01 1.030466432307692237e+01 1.030466432307692237e+01 1.030466432307692237e+01 1.030466432307692237e+01 1.030466432307692237e+01 1.030466432307692237e+01 1.030466432307692237e+01 1.030466432307692237e+01 1.030466432307692237e+01 1.030466432307692237e+01 1.030466432307692237e+01 1.030466432307692237e+01 1.030466432307692237e+01 1.030466432307692237e+01 1.030466432307692237e+01 1.030466432307692237e+01 1.030466432307692237e+01 1.030466432307692237e+01 1.030466432307692237e+01 1.030466432307692237e+01 1.030466432307692237e+01 1.030466432307692237e+01 1.030466432307692237e+01 1.030466432307692237e+01 1.030466432307692237e+01 1.030466432307692237e+01 1.030466432307692237e+01 1.030466432307692237e+01 1.030466432307692237e+01 1.030466432307692237e+01 1.030466432307692237e+01 1.030466432307692237e+01 1.030466432307692237e+01 1.030466432307692237e+01 1.030466432307692237e+01 1.030466432307692237e+01 1.030466432307692237e+01 1.030466432307692237e+01 1.030466432307692237e+01 1.030466432307692237e+01 1.030466432307692237e+01 1.030466432307692237e+01 1.030466432307692237e+01 1.030466432307692237e+01 1.030466432307692237e+01 1.030466432307692237e+01 1.030466432307692237e+01 1.030466432307692237e+01 1.030466432307692237e+01 1.030466432307692237e+01 1.030466432307692237e+01 1.030466432307692237e+01 1.030466432307692237e+01 1.030466432307692237e+01 1.030466432307692237e+01 1.030466432307692237e+01 1.030466432307692237e+01 1.030466432307692237e+01 1.030466432307692237e+01 1.030466432307692237e+01 1.030466432307692237e+01 1.030466432307692237e+01 1.030466432307692237e+01 1.030466432307692237e+01 1.030466432307692237e+01 1.030466432307692237e+01 1.030466432307692237e+01 1.030466432307692237e+01 1.030466432307692237e+01 1.030466432307692237e+01 1.030466432307692237e+01 1.030466432307692237e+01 1.030466432307692237e+01 1.030466432307692237e+01 1.030466432307692237e+01 1.030466432307692237e+01 1.030466432307692237e+01 1.030466432307692237e+01 1.030466432307692237e+01 1.030466432307692237e+01 1.030466432307692237e+01 1.030466432307692237e+01 1.030466432307692237e+01 1.030466432307692237e+01 1.030466432307692237e+01 1.030466432307692237e+01 1.030466432307692237e+01 1.030466432307692237e+01 1.030466432307692237e+01 1.030466432307692237e+01 1.030466432307692237e+01 1.030466432307692237e+01 1.030466432307692237e+01 1.030466432307692237e+01 1.030466432307692237e+01 1.030466432307692237e+01 1.030466432307692237e+01 1.030466432307692237e+01 1.030466432307692237e+01 1.030466432307692237e+01 1.030466432307692237e+01 1.030466432307692237e+01 1.030466432307692237e+01 1.030466432307692237e+01 1.030466432307692237e+01 1.030466432307692237e+01 1.030466432307692237e+01 1.030466432307692237e+01 1.030466432307692237e+01 1.030466432307692237e+01 1.030466432307692237e+01 1.030466432307692237e+01 1.030466432307692237e+01 1.030466432307692237e+01 1.030466432307692237e+01 1.030466432307692237e+01 1.030466432307692237e+01 1.030466432307692237e+01 1.030466432307692237e+01 1.030466432307692237e+01 1.030466432307692237e+01 1.030466432307692237e+01 1.030466432307692237e+01 1.030466432307692237e+01 1.030466432307692237e+01 1.030466432307692237e+01 1.030466432307692237e+01 1.030466432307692237e+01 1.030466432307692237e+01 1.030466432307692237e+01 1.030466432307692237e+01 1.030466432307692237e+01 1.030466432307692237e+01 1.030466432307692237e+01 1.030466432307692237e+01 1.030466432307692237e+01 1.030466432307692237e+01 1.030466432307692237e+01 1.030466432307692237e+01 1.030466432307692237e+01 1.030466432307692237e+01 1.030466432307692237e+01 1.030466432307692237e+01 1.030466432307692237e+01 1.030466432307692237e+01 1.030466432307692237e+01 1.030466432307692237e+01 1.030466432307692237e+01 1.030466432307692237e+01 1.030466432307692237e+01 1.030466432307692237e+01 1.030466432307692237e+01 1.030466432307692237e+01 1.030466432307692237e+01 1.030466432307692237e+01 4.612318690000000174e+02 4.229198240000000055e+02 4.391045649999999796e+02 4.244601059999999961e+02 4.350563789999999926e+02 4.206440329999999790e+02 4.393894000000000233e+02 4.175007100000000264e+02 4.557376469999999813e+02 4.142286760000000072e+02 4.671692570000000160e+02 3.917365609999999947e+02 4.673141939999999863e+02 4.416805989999999724e+02 4.606111149999999839e+02 3.978515959999999723e+02 4.415533919999999739e+02 4.114825559999999882e+02 4.495427440000000274e+02 4.182124420000000100e+02 4.651698030000000017e+02 4.138534270000000106e+02 4.412681380000000217e+02 3.999623990000000049e+02 4.369689379999999801e+02 3.747497720000000072e+02 4.238282029999999736e+02 4.148218590000000177e+02 4.442532529999999724e+02 3.968553279999999859e+02 4.509983560000000011e+02 4.060617189999999823e+02 4.159326060000000211e+02
-1.449371956923076965e+01 -1.449371956923076965e+01 -1.449371956923076965e+01 -1.449371956923076965e+01 -1.449371956923076965e+01 -1.449371956923076965e+01 -1.449371956923076965e+01 -1.449371956923076965e+01 -1.449371956923076965e+01 -1.449371956923076965e+01 -1.449371956923076965e+01 -1.449371956923076965e+01 -1.449371956923076965e+01 -1.449371956923076965e+01 -1.449371956923076965e+01 -1.449371956923076965e+01 -1.449371956923076965e+01 -1.449371956923076965e+01 -1.449371956923076965e+01 -1.449371956923076965e+01 -1.449371956923076965e+01 -1.449371956923076965e+01 -1.449371956923076965e+01 -1.449371956923076965e+01 -1.449371956923076965e+01 -1.449371956923076965e+01 -1.449371956923076965e+01 -1.449371956923076965e+01 -1.449371956923076965e+01 -1.449371956923076965e+01 -1.449371956923076965e+01 -1.449371956923076965e+01 -1.449371956923076965e+01 -1.449371956923076965e+01 -1.449371956923076965e+01 -1.449371956923076965e+01 -1.449371956923076965e+01 -1.449371956923076965e+01 -1.449371956923076965e+01 -1.449371956923076965e+01 -1.449371956923076965e+01 -1.449371956923076965e+01 -1.449371956923076965e+01 -1.449371956923076965e+01 -1.449371956923076965e+01 -1.449371956923076965e+01 -1.449371956923076965e+01 -1.449371956923076965e+01 -1.449371956923076965e+01 -1.449371956923076965e+01 -1.449371956923076965e+01 -1.449371956923076965e+01 -1.449371956923076965e+01 -1.449371956923076965e+01 -1.449371956923076965e+01 -1.449371956923076965e+01 -1.449371956923076965e+01 -1.449371956923076965e+01 -1.449371956923076965e+01 -1.449371956923076965e+01 -1.449371956923076965e+01 -1.449371956923076965e+01 -1.449371956923076965e+01 -1.449371956923076965e+01 -1.449371956923076965e+01 -1.449371956923076965e+01 -1.449371956923076965e+01 -1.449371956923076965e+01 -1.449371956923076965e+01 -1.449371956923076965e+01 -1.449371956923076965e+01 -1.449371956923076965e+01 -1.449371956923076965e+01 -1.449371956923076965e+01 -1.449371956923076965e+01 -1.449371956923076965e+01 -1.449371956923076965e+01 -1.449371956923076965e+01 -1.449371956923076965e+01 -1.449371956923076965e+01 -1.449371956923076965e+01 -1.449371956923076965e+01 -1.449371956923076965e+01 -1.449371956923076965e+01 -1.449371956923076965e+01 -1.449371956923076965e+01 -1.449371956923076965e+01 -1.449371956923076965e+01 -1.449371956923076965e+01 -1.449371956923076965e+01 -1.449371956923076965e+01 -1.449371956923076965e+01 -1.449371956923076965e+01 -1.449371956923076965e+01 -1.449371956923076965e+01 -1.449371956923076965e+01 -1.449371956923076965e+01 -1.449371956923076965e+01 -1.449371956923076965e+01 -1.449371956923076965e+01 -1.449371956923076965e+01 -1.449371956923076965e+01 -1.449371956923076965e+01 -1.449371956923076965e+01 -1.449371956923076965e+01 -1.449371956923076965e+01 -1.449371956923076965e+01 -1.449371956923076965e+01 -1.449371956923076965e+01 -1.449371956923076965e+01 -1.449371956923076965e+01 -1.449371956923076965e+01 -1.449371956923076965e+01 -1.449371956923076965e+01 -1.449371956923076965e+01 -1.449371956923076965e+01 -1.449371956923076965e+01 -1.449371956923076965e+01 -1.449371956923076965e+01 -1.449371956923076965e+01 -1.449371956923076965e+01 -1.449371956923076965e+01 -1.449371956923076965e+01 -1.449371956923076965e+01 -1.449371956923076965e+01 -1.449371956923076965e+01 -1.449371956923076965e+01 -1.449371956923076965e+01 -1.449371956923076965e+01 -1.449371956923076965e+01 -1.449371956923076965e+01 -1.449371956923076965e+01 -1.449371956923076965e+01 -1.449371956923076965e+01 -1.449371956923076965e+01 -1.449371956923076965e+01 -1.449371956923076965e+01 -1.449371956923076965e+01 -1.449371956923076965e+01 -1.449371956923076965e+01 -1.449371956923076965e+01 -1.449371956923076965e+01 -1.449371956923076965e+01 -1.449371956923076965e+01 -1.449371956923076965e+01 -1.449371956923076965e+01 -1.449371956923076965e+01 -1.449371956923076965e+01 -1.449371956923076965e+01 -1.449371956923076965e+01 -1.449371956923076965e+01 -1.449371956923076965e+01 -1.449371956923076965e+01 -1.449371956923076965e+01 -1.449371956923076965e+01 -1.449371956923076965e+01 -1.449371956923076965e+01 -1.449371956923076965e+01 -1.449371956923076965e+01 -1.449371956923076965e+01 -1.449371956923076965e+01 -1.449371956923076965e+01 -1.449371956923076965e+01 -1.449371956923076965e+01 -1.449371956923076965e+01 -1.449371956923076965e+01 -1.449371956923076965e+01 -1.449371956923076965e+01 -1.449371956923076965e+01 -1.449371956923076965e+01 -1.449371956923076965e+01 -1.449371956923076965e+01 -1.449371956923076965e+01 -1.449371956923076965e+01 -1.449371956923076965e+01 -1.449371956923076965e+01 -1.449371956923076965e+01 4.797584299999999757e+02 4.428677450000000135e+02 4.645698540000000207e+02 4.483840549999999894e+02 4.548239080000000172e+02 4.439287909999999897e+02 4.628204840000000218e+02 4.413140329999999949e+02 4.789526930000000107e+02 4.376158639999999878e+02 4.935539319999999748e+02 4.198178790000000049e+02 4.849463410000000181e+02 4.625831709999999930e+02 4.831388959999999884e+02 4.122632100000000150e+02 4.569034110000000055e+02 4.321562220000000138e+02 4.735280859999999734e+02 4.342844400000000178e+02 4.790098160000000007e+02 4.292848900000000185e+02 4.614681850000000054e+02 4.183964119999999980e+02 4.519196099999999774e+02 3.897940590000000043e+02 4.444669089999999869e+02 4.286971829999999954e+02 4.567450390000000198e+02 4.092154639999999972e+02 4.768337109999999939e+02 4.253394149999999740e+02 4.316699409999999943e+02
-2.632595502692307576e+01 -2.632595502692307576e+01 -2.632595502692307576e+01 -2.632595502692307576e+01 -2.632595502692307576e+01 -2.632595502692307576e+01 -2.632595502692307576e+01 -2.632595502692307576e+01 -2.632595502692307576e+01 -2.632595502692307576e+01 -2.632595502692307576e+01 -2.632595502692307576e+01 -2.632595502692307576e+01 -2.632595502692307576e+01 -2.632595502692307576e+01 -2.632595502692307576e+01 -2.632595502692307576e+01 -2.632595502692307576e+01 -2.632595502692307576e+01 -2.632595502692307576e+01 -2.632595502692307576e+01 -2.632595502692307576e+01 -2.632595502692307576e+01 -2.632595502692307576e+01 -2.632595502692307576e+01 -2.632595502692307576e+01 -2.632595502692307576e+01 -2.632595502692307576e+01 -2.632595502692307576e+01 -2.632595502692307576e+01 -2.632595502692307576e+01 -2.632595502692307576e+01 -2.632595502692307576e+01 -2.632595502692307576e+01 -2.632595502692307576e+01 -2.632595502692307576e+01 -2.632595502692307576e+01 -2.632595502692307576e+01 -2.632595502692307576e+01 -2.632595502692307576e+01 -2.632595502692307576e+01 -2.632595502692307576e+01 -2.632595502692307576e+01 -2.632595502692307576e+01 -2.632595502692307576e+01 -2.632595502692307576e+01 -2.632595502692307576e+01 -2.632595502692307576e+01 -2.632595502692307576e+01 -2.632595502692307576e+01 -2.632595502692307576e+01 -2.632595502692307576e+01 -2.632595502692307576e+01 -2.632595502692307576e+01 -2.632595502692307576e+01 -2.632595502692307576e+01 -2.632595502692307576e+01 -2.632595502692307576e+01 -2.632595502692307576e+01 -2.632595502692307576e+01 -2.632595502692307576e+01 -2.632595502692307576e+01 -2.632595502692307576e+01 -2.632595502692307576e+01 -2.632595502692307576e+01 -2.632595502692307576e+01 -2.632595502692307576e+01 -2.632595502692307576e+01 -2.632595502692307576e+01 -2.632595502692307576e+01 -2.632595502692307576e+01 -2.632595502692307576e+01 -2.632595502692307576e+01 -2.632595502692307576e+01 -2.632595502692307576e+01 -2.632595502692307576e+01 -2.632595502692307576e+01 -2.632595502692307576e+01 -2.632595502692307576e+01 -2.632595502692307576e+01 -2.632595502692307576e+01 -2.632595502692307576e+01 -2.632595502692307576e+01 -2.632595502692307576e+01 -2.632595502692307576e+01 -2.632595502692307576e+01 -2.632595502692307576e+01 -2.632595502692307576e+01 -2.632595502692307576e+01 -2.632595502692307576e+01 -2.632595502692307576e+01 -2.632595502692307576e+01 -2.632595502692307576e+01 -2.632595502692307576e+01 -2.632595502692307576e+01 -2.632595502692307576e+01 -2.632595502692307576e+01 -2.632595502692307576e+01 -2.632595502692307576e+01 -2.632595502692307576e+01 -2.632595502692307576e+01 -2.632595502692307576e+01 -2.632595502692307576e+01 -2.632595502692307576e+01 -2.632595502692307576e+01 -2.632595502692307576e+01 -2.632595502692307576e+01 -2.632595502692307576e+01 -2.632595502692307576e+01 -2.632595502692307576e+01 -2.632595502692307576e+01 -2.632595502692307576e+01 -2.632595502692307576e+01 -2.632595502692307576e+01 -2.632595502692307576e+01 -2.632595502692307576e+01 -2.632595502692307576e+01 -2.632595502692307576e+01 -2.632595502692307576e+01 -2.632595502692307576e+01 -2.632595502692307576e+01 -2.632595502692307576e+01 -2.632595502692307576e+01 -2.632595502692307576e+01 -2.632595502692307576e+01 -2.632595502692307576e+01 -2.632595502692307576e+01 -2.632595502692307576e+01 -2.632595502692307576e+01 -2.632595502692307576e+01 -2.632595502692307576e+01 -2.632595502692307576e+01 -2.632595502692307576e+01 -2.632595502692307576e+01 -2.632595502692307576e+01 -2.632595502692307576e+01 -2.632595502692307576e+01 -2.632595502692307576e+01 -2.632595502692307576e+01 -2.632595502692307576e+01 -2.632595502692307576e+01 -2.632595502692307576e+01 -2.632595502692307576e+01 -2.632595502692307576e+01 -2.632595502692307576e+01 -2.632595502692307576e+01 -2.632595502692307576e+01 -2.632595502692307576e+01 -2.632595502692307576e+01 -2.632595502692307576e+01 -2.632595502692307576e+01 -2.632595502692307576e+01 -2.632595502692307576e+01 -2.632595502692307576e+01 -2.632595502692307576e+01 -2.632595502692307576e+01 -2.632595502692307576e+01 -2.632595502692307576e+01 -2.632595502692307576e+01 -2.632595502692307576e+01 -2.632595502692307576e+01 -2.632595502692307576e+01 -2.632595502692307576e+01 -2.632595502692307576e+01 -2.632595502692307576e+01 -2.632595502692307576e+01 -2.632595502692307576e+01 -2.632595502692307576e+01 -2.632595502692307576e+01 -2.632595502692307576e+01 -2.632595502692307576e+01 -2.632595502692307576e+01 -2.632595502692307576e+01 -2.632595502692307576e+01 -2.632595502692307576e+01 -2.632595502692307576e+01 -2.632595502692307576e+01 3.974538909999999987e+02 3.431764929999999936e+02 3.772289190000000190e+02 3.454616470000000277e+02 3.753169379999999933e+02 3.426694029999999884e+02 3.792966920000000073e+02 3.486762810000000172e+02 3.961145910000000185e+02 3.437711110000000190e+02 4.159824380000000019e+02 3.222669359999999870e+02 4.051357760000000212e+02 3.622504400000000260e+02 3.966675920000000133e+02 3.103663720000000126e+02 3.684817390000000046e+02 3.376435920000000124e+02 3.915068259999999896e+02 3.414159349999999904e+02 4.053512230000000045e+02 3.326880520000000274e+02 3.803261110000000258e+02 3.155697920000000067e+02 3.610968520000000126e+02 2.922106309999999780e+02 3.602441380000000208e+02 3.278343049999999721e+02 3.780876690000000053e+02 3.045428840000000150e+02 3.876469630000000279e+02 3.317997869999999807e+02 3.511859660000000076e+02
4.857360859615384641e+01 4.857360859615384641e+01 4.857360859615384641e+01 4.857360859615384641e+01 4.857360859615384641e+01 4.857360859615384641e+01 4.857360859615384641e+01 4.857360859615384641e+01 4.857360859615384641e+01 4.857360859615384641e+01 4.857360859615384641e+01 4.857360859615384641e+01 4.857360859615384641e+01 4.857360859615384641e+01 4.857360859615384641e+01 4.857360859615384641e+01 4.857360859615384641e+01 4.857360859615384641e+01 4.857360859615384641e+01 4.857360859615384641e+01 4.857360859615384641e+01 4.857360859615384641e+01 4.857360859615384641e+01 4.857360859615384641e+01 4.857360859615384641e+01 4.857360859615384641e+01 4.857360859615384641e+01 4.857360859615384641e+01 4.857360859615384641e+01 4.857360859615384641e+01 4.857360859615384641e+01 4.857360859615384641e+01 4.857360859615384641e+01 4.857360859615384641e+01 4.857360859615384641e+01 4.857360859615384641e+01 4.857360859615384641e+01 4.857360859615384641e+01 4.857360859615384641e+01 4.857360859615384641e+01 4.857360859615384641e+01 4.857360859615384641e+01 4.857360859615384641e+01 4.857360859615384641e+01 4.857360859615384641e+01 4.857360859615384641e+01 4.857360859615384641e+01 4.857360859615384641e+01 4.857360859615384641e+01 4.857360859615384641e+01 4.857360859615384641e+01 4.857360859615384641e+01 4.857360859615384641e+01 4.857360859615384641e+01 4.857360859615384641e+01 4.857360859615384641e+01 4.857360859615384641e+01 4.857360859615384641e+01 4.857360859615384641e+01 4.857360859615384641e+01 4.857360859615384641e+01 4.857360859615384641e+01 4.857360859615384641e+01 4.857360859615384641e+01 4.857360859615384641e+01 4.857360859615384641e+01 4.857360859615384641e+01 4.857360859615384641e+01 4.857360859615384641e+01 4.857360859615384641e+01 4.857360859615384641e+01 4.857360859615384641e+01 4.857360859615384641e+01 4.857360859615384641e+01 4.857360859615384641e+01 4.857360859615384641e+01 4.857360859615384641e+01 4.857360859615384641e+01 4.857360859615384641e+01 4.857360859615384641e+01 4.857360859615384641e+01 4.857360859615384641e+01 4.857360859615384641e+01 4.857360859615384641e+01 4.857360859615384641e+01 4.857360859615384641e+01 4.857360859615384641e+01 4.857360859615384641e+01 4.857360859615384641e+01 4.857360859615384641e+01 4.857360859615384641e+01 4.857360859615384641e+01 4.857360859615384641e+01 4.857360859615384641e+01 4.857360859615384641e+01 4.857360859615384641e+01 4.857360859615384641e+01 4.857360859615384641e+01 4.857360859615384641e+01 4.857360859615384641e+01 4.857360859615384641e+01 4.857360859615384641e+01 4.857360859615384641e+01 4.857360859615384641e+01 4.857360859615384641e+01 4.857360859615384641e+01 4.857360859615384641e+01 4.857360859615384641e+01 4.857360859615384641e+01 4.857360859615384641e+01 4.857360859615384641e+01 4.857360859615384641e+01 4.857360859615384641e+01 4.857360859615384641e+01 4.857360859615384641e+01 4.857360859615384641e+01 4.857360859615384641e+01 4.857360859615384641e+01 4.857360859615384641e+01 4.857360859615384641e+01 4.857360859615384641e+01 4.857360859615384641e+01 4.857360859615384641e+01 4.857360859615384641e+01 4.857360859615384641e+01 4.857360859615384641e+01 4.857360859615384641e+01 4.857360859615384641e+01 4.857360859615384641e+01 4.857360859615384641e+01 4.857360859615384641e+01 4.857360859615384641e+01 4.857360859615384641e+01 4.857360859615384641e+01 4.857360859615384641e+01 4.857360859615384641e+01 4.857360859615384641e+01 4.857360859615384641e+01 4.857360859615384641e+01 4.857360859615384641e+01 4.857360859615384641e+01 4.857360859615384641e+01 4.857360859615384641e+01 4.857360859615384641e+01 4.857360859615384641e+01 4.857360859615384641e+01 4.857360859615384641e+01 4.857360859615384641e+01 4.857360859615384641e+01 4.857360859615384641e+01 4.857360859615384641e+01 4.857360859615384641e+01 4.857360859615384641e+01 4.857360859615384641e+01 4.857360859615384641e+01 4.857360859615384641e+01 4.857360859615384641e+01 4.857360859615384641e+01 4.857360859615384641e+01 4.857360859615384641e+01 4.857360859615384641e+01 4.857360859615384641e+01 4.857360859615384641e+01 4.857360859615384641e+01 4.857360859615384641e+01 4.857360859615384641e+01 4.857360859615384641e+01 4.857360859615384641e+01 4.857360859615384641e+01 4.857360859615384641e+01 4.857360859615384641e+01 4.857360859615384641e+01 4.857360859615384641e+01 4.857360859615384641e+01 4.857360859615384641e+01 4.857360859615384641e+01 4.857360859615384641e+01 3.328030820000000176e+02 2.746054270000000201e+02 3.089391880000000015e+02 2.799088060000000269e+02 2.923098580000000197e+02 2.689191509999999994e+02 3.044673579999999902e+02 2.793845460000000003e+02 3.136587349999999788e+02 2.770701500000000124e+02 3.240868330000000128e+02 2.591927680000000009e+02 3.249221059999999852e+02 2.595214100000000030e+02 3.096061990000000037e+02 2.769207870000000185e+02 2.901584280000000149e+02 2.728120420000000195e+02 3.105896240000000148e+02 2.827498330000000237e+02 3.181307269999999789e+02 2.632759750000000167e+02 2.988867500000000064e+02 2.647629890000000046e+02 2.862344459999999913e+02 2.365386699999999962e+02 2.884545259999999871e+02 2.731702559999999949e+02 3.057721300000000042e+02 2.345643809999999974e+02 2.800094369999999913e+02 2.781325610000000097e+02 2.802185470000000009e+02
1.652212556923076647e+01 1.652212556923076647e+01 1.652212556923076647e+01 1.652212556923076647e+01 1.652212556923076647e+01 1.652212556923076647e+01 1.652212556923076647e+01 1.652212556923076647e+01 1.652212556923076647e+01 1.652212556923076647e+01 1.652212556923076647e+01 1.652212556923076647e+01 1.652212556923076647e+01 1.652212556923076647e+01 1.652212556923076647e+01 1.652212556923076647e+01 1.652212556923076647e+01 1.652212556923076647e+01 1.652212556923076647e+01 1.652212556923076647e+01 1.652212556923076647e+01 1.652212556923076647e+01 1.652212556923076647e+01 1.652212556923076647e+01 1.652212556923076647e+01 1.652212556923076647e+01 1.652212556923076647e+01 1.652212556923076647e+01 1.652212556923076647e+01 1.652212556923076647e+01 1.652212556923076647e+01 1.652212556923076647e+01 1.652212556923076647e+01 1.652212556923076647e+01 1.652212556923076647e+01 1.652212556923076647e+01 1.652212556923076647e+01 1.652212556923076647e+01 1.652212556923076647e+01 1.652212556923076647e+01 1.652212556923076647e+01 1.652212556923076647e+01 1.652212556923076647e+01 1.652212556923076647e+01 1.652212556923076647e+01 1.652212556923076647e+01 1.652212556923076647e+01 1.652212556923076647e+01 1.652212556923076647e+01 1.652212556923076647e+01 1.652212556923076647e+01 1.652212556923076647e+01 1.652212556923076647e+01 1.652212556923076647e+01 1.652212556923076647e+01 1.652212556923076647e+01 1.652212556923076647e+01 1.652212556923076647e+01 1.652212556923076647e+01 1.652212556923076647e+01 1.652212556923076647e+01 1.652212556923076647e+01 1.652212556923076647e+01 1.652212556923076647e+01 1.652212556923076647e+01 1.652212556923076647e+01 1.652212556923076647e+01 1.652212556923076647e+01 1.652212556923076647e+01 1.652212556923076647e+01 1.652212556923076647e+01 1.652212556923076647e+01 1.652212556923076647e+01 1.652212556923076647e+01 1.652212556923076647e+01 1.652212556923076647e+01 1.652212556923076647e+01 1.652212556923076647e+01 1.652212556923076647e+01 1.652212556923076647e+01 1.652212556923076647e+01 1.652212556923076647e+01 1.652212556923076647e+01 1.652212556923076647e+01 1.652212556923076647e+01 1.652212556923076647e+01 1.652212556923076647e+01 1.652212556923076647e+01 1.652212556923076647e+01 1.652212556923076647e+01 1.652212556923076647e+01 1.652212556923076647e+01 1.652212556923076647e+01 1.652212556923076647e+01 1.652212556923076647e+01 1.652212556923076647e+01 1.652212556923076647e+01 1.652212556923076647e+01 1.652212556923076647e+01 1.652212556923076647e+01 1.652212556923076647e+01 1.652212556923076647e+01 1.652212556923076647e+01 1.652212556923076647e+01 1.652212556923076647e+01 1.652212556923076647e+01 1.652212556923076647e+01 1.652212556923076647e+01 1.652212556923076647e+01 1.652212556923076647e+01 1.652212556923076647e+01 1.652212556923076647e+01 1.652212556923076647e+01 1.652212556923076647e+01 1.652212556923076647e+01 1.652212556923076647e+01 1.652212556923076647e+01 1.652212556923076647e+01 1.652212556923076647e+01 1.652212556923076647e+01 1.652212556923076647e+01 1.652212556923076647e+01 1.652212556923076647e+01 1.652212556923076647e+01 1.652212556923076647e+01 1.652212556923076647e+01 1.652212556923076647e+01 1.652212556923076647e+01 1.652212556923076647e+01 1.652212556923076647e+01 1.652212556923076647e+01 1.652212556923076647e+01 1.652212556923076647e+01 1.652212556923076647e+01 1.652212556923076647e+01 1.652212556923076647e+01 1.652212556923076647e+01 1.652212556923076647e+01 1.652212556923076647e+01 1.652212556923076647e+01 1.652212556923076647e+01 1.652212556923076647e+01 1.652212556923076647e+01 1.652212556923076647e+01 1.652212556923076647e+01 1.652212556923076647e+01 1.652212556923076647e+01 1.652212556923076647e+01 1.652212556923076647e+01 1.652212556923076647e+01 1.652212556923076647e+01 1.652212556923076647e+01 1.652212556923076647e+01 1.652212556923076647e+01 1.652212556923076647e+01 1.652212556923076647e+01 1.652212556923076647e+01 1.652212556923076647e+01 1.652212556923076647e+01 1.652212556923076647e+01 1.652212556923076647e+01 1.652212556923076647e+01 1.652212556923076647e+01 1.652212556923076647e+01 1.652212556923076647e+01 1.652212556923076647e+01 1.652212556923076647e+01 1.652212556923076647e+01 1.652212556923076647e+01 1.652212556923076647e+01 1.652212556923076647e+01 1.652212556923076647e+01 1.652212556923076647e+01 1.652212556923076647e+01 1.652212556923076647e+01 1.652212556923076647e+01 1.652212556923076647e+01 2.748464309999999955e+02 2.170704340000000059e+02 2.686832309999999779e+02 2.305556559999999990e+02 2.522817750000000103e+02 2.355940490000000125e+02 2.616818220000000110e+02 2.468977350000000115e+02 2.646922999999999888e+02 2.202014369999999985e+02 2.827682379999999966e+02 2.156060630000000060e+02 2.714730640000000221e+02 2.359821520000000135e+02 2.756512339999999881e+02 2.437256409999999960e+02 2.457098479999999938e+02 2.337572159999999997e+02 2.696591290000000072e+02 2.459386959999999931e+02 2.765725929999999835e+02 2.269281790000000001e+02 2.724808320000000208e+02 2.406073910000000069e+02 2.248040139999999951e+02 1.976042899999999918e+02 2.690467110000000162e+02 2.446311269999999922e+02 2.637958429999999908e+02 2.119438240000000064e+02 2.720840989999999806e+02 2.352156469999999899e+02 2.325547860000000071e+02
6.395049593846153613e+01 6.395049593846153613e+01 6.395049593846153613e+01 6.395049593846153613e+01 6.395049593846153613e+01 6.395049593846153613e+01 6.395049593846153613e+01 6.395049593846153613e+01 6.395049593846153613e+01 6.395049593846153613e+01 6.395049593846153613e+01 6.395049593846153613e+01 6.395049593846153613e+01 6.395049593846153613e+01 6.395049593846153613e+01 6.395049593846153613e+01 6.395049593846153613e+01 6.395049593846153613e+01 6.395049593846153613e+01 6.395049593846153613e+01 6.395049593846153613e+01 6.395049593846153613e+01 6.395049593846153613e+01 6.395049593846153613e+01 6.395049593846153613e+01 6.395049593846153613e+01 6.395049593846153613e+01 6.395049593846153613e+01 6.395049593846153613e+01 6.395049593846153613e+01 6.395049593846153613e+01 6.395049593846153613e+01 6.395049593846153613e+01 6.395049593846153613e+01 6.395049593846153613e+01 6.395049593846153613e+01 6.395049593846153613e+01 6.395049593846153613e+01 6.395049593846153613e+01 6.395049593846153613e+01 6.395049593846153613e+01 6.395049593846153613e+01 6.395049593846153613e+01 6.395049593846153613e+01 6.395049593846153613e+01 6.395049593846153613e+01 6.395049593846153613e+01 6.395049593846153613e+01 6.395049593846153613e+01 6.395049593846153613e+01 6.395049593846153613e+01 6.395049593846153613e+01 6.395049593846153613e+01 6.395049593846153613e+01 6.395049593846153613e+01 6.395049593846153613e+01 6.395049593846153613e+01 6.395049593846153613e+01 6.395049593846153613e+01 6.395049593846153613e+01 6.395049593846153613e+01 6.395049593846153613e+01 6.395049593846153613e+01 6.395049593846153613e+01 6.395049593846153613e+01 6.395049593846153613e+01 6.395049593846153613e+01 6.395049593846153613e+01 6.395049593846153613e+01 6.395049593846153613e+01 6.395049593846153613e+01 6.395049593846153613e+01 6.395049593846153613e+01 6.395049593846153613e+01 6.395049593846153613e+01 6.395049593846153613e+01 6.395049593846153613e+01 6.395049593846153613e+01 6.395049593846153613e+01 6.395049593846153613e+01 6.395049593846153613e+01 6.395049593846153613e+01 6.395049593846153613e+01 6.395049593846153613e+01 6.395049593846153613e+01 6.395049593846153613e+01 6.395049593846153613e+01 6.395049593846153613e+01 6.395049593846153613e+01 6.395049593846153613e+01 6.395049593846153613e+01 6.395049593846153613e+01 6.395049593846153613e+01 6.395049593846153613e+01 6.395049593846153613e+01 6.395049593846153613e+01 6.395049593846153613e+01 6.395049593846153613e+01 6.395049593846153613e+01 6.395049593846153613e+01 6.395049593846153613e+01 6.395049593846153613e+01 6.395049593846153613e+01 6.395049593846153613e+01 6.395049593846153613e+01 6.395049593846153613e+01 6.395049593846153613e+01 6.395049593846153613e+01 6.395049593846153613e+01 6.395049593846153613e+01 6.395049593846153613e+01 6.395049593846153613e+01 6.395049593846153613e+01 6.395049593846153613e+01 6.395049593846153613e+01 6.395049593846153613e+01 6.395049593846153613e+01 6.395049593846153613e+01 6.395049593846153613e+01 6.395049593846153613e+01 6.395049593846153613e+01 6.395049593846153613e+01 6.395049593846153613e+01 6.395049593846153613e+01 6.395049593846153613e+01 6.395049593846153613e+01 6.395049593846153613e+01 6.395049593846153613e+01 6.395049593846153613e+01 6.395049593846153613e+01 6.395049593846153613e+01 6.395049593846153613e+01 6.395049593846153613e+01 6.395049593846153613e+01 6.395049593846153613e+01 6.395049593846153613e+01 6.395049593846153613e+01 6.395049593846153613e+01 6.395049593846153613e+01 6.395049593846153613e+01 6.395049593846153613e+01 6.395049593846153613e+01 6.395049593846153613e+01 6.395049593846153613e+01 6.395049593846153613e+01 6.395049593846153613e+01 6.395049593846153613e+01 6.395049593846153613e+01 6.395049593846153613e+01 6.395049593846153613e+01 6.395049593846153613e+01 6.395049593846153613e+01 6.395049593846153613e+01 6.395049593846153613e+01 6.395049593846153613e+01 6.395049593846153613e+01 6.395049593846153613e+01 6.395049593846153613e+01 6.395049593846153613e+01 6.395049593846153613e+01 6.395049593846153613e+01 6.395049593846153613e+01 6.395049593846153613e+01 6.395049593846153613e+01 6.395049593846153613e+01 6.395049593846153613e+01 6.395049593846153613e+01 6.395049593846153613e+01 6.395049593846153613e+01 6.395049593846153613e+01 6.395049593846153613e+01 6.395049593846153613e+01 6.395049593846153613e+01 6.395049593846153613e+01 6.395049593846153613e+01 6.395049593846153613e+01 6.395049593846153613e+01 3.232016669999999863e+02 2.849194140000000175e+02 3.438497090000000185e+02 3.197392540000000167e+02 3.236573750000000018e+02 2.815197259999999915e+02 3.277481500000000096e+02 3.009259470000000078e+02 3.338142409999999813e+02 2.951224990000000048e+02 3.394180479999999989e+02 2.822802710000000275e+02 3.277356760000000122e+02 3.122867810000000190e+02 3.613368080000000191e+02 2.821235720000000242e+02 3.157575049999999806e+02 2.860296930000000089e+02 3.399173959999999965e+02 3.135532989999999813e+02 3.491450249999999755e+02 3.068523549999999886e+02 3.300803869999999733e+02 2.890162460000000237e+02 2.957639609999999948e+02 2.650874390000000176e+02 3.183769819999999982e+02 3.094590840000000185e+02 3.253342020000000048e+02 2.772100810000000024e+02 3.196846659999999929e+02 3.074750690000000191e+02 3.063878300000000081e+02
7.474287201538460579e+01 7.474287201538460579e+01 7.474287201538460579e+01 7.474287201538460579e+01 7.474287201538460579e+01 7.474287201538460579e+01 7.474287201538460579e+01 7.474287201538460579e+01 7.474287201538460579e+01 7.474287201538460579e+01 7.474287201538460579e+01 7.474287201538460579e+01 7.474287201538460579e+01 7.474287201538460579e+01 7.474287201538460579e+01 7.474287201538460579e+01 7.474287201538460579e+01 7.474287201538460579e+01 7.474287201538460579e+01 7.474287201538460579e+01 7.474287201538460579e+01 7.474287201538460579e+01 7.474287201538460579e+01 7.474287201538460579e+01 7.474287201538460579e+01 7.474287201538460579e+01 7.474287201538460579e+01 7.474287201538460579e+01 7.474287201538460579e+01 7.474287201538460579e+01 7.474287201538460579e+01 7.474287201538460579e+01 7.474287201538460579e+01 7.474287201538460579e+01 7.474287201538460579e+01 7.474287201538460579e+01 7.474287201538460579e+01 7.474287201538460579e+01 7.474287201538460579e+01 7.474287201538460579e+01 7.474287201538460579e+01 7.474287201538460579e+01 7.474287201538460579e+01 7.474287201538460579e+01 7.474287201538460579e+01 7.474287201538460579e+01 7.474287201538460579e+01 7.474287201538460579e+01 7.474287201538460579e+01 7.474287201538460579e+01 7.474287201538460579e+01 7.474287201538460579e+01 7.474287201538460579e+01 7.474287201538460579e+01 7.474287201538460579e+01 7.474287201538460579e+01 7.474287201538460579e+01 7.474287201538460579e+01 7.474287201538460579e+01 7.474287201538460579e+01 7.474287201538460579e+01 7.474287201538460579e+01 7.474287201538460579e+01 7.474287201538460579e+01 7.474287201538460579e+01 7.474287201538460579e+01 7.474287201538460579e+01 7.474287201538460579e+01 7.474287201538460579e+01 7.474287201538460579e+01 7.474287201538460579e+01 7.474287201538460579e+01 7.474287201538460579e+01 7.474287201538460579e+01 7.474287201538460579e+01 7.474287201538460579e+01 7.474287201538460579e+01 7.474287201538460579e+01 7.474287201538460579e+01 7.474287201538460579e+01 7.474287201538460579e+01 7.474287201538460579e+01 7.474287201538460579e+01 7.474287201538460579e+01 7.474287201538460579e+01 7.474287201538460579e+01 7.474287201538460579e+01 7.474287201538460579e+01 7.474287201538460579e+01 7.474287201538460579e+01 7.474287201538460579e+01 7.474287201538460579e+01 7.474287201538460579e+01 7.474287201538460579e+01 7.474287201538460579e+01 7.474287201538460579e+01 7.474287201538460579e+01 7.474287201538460579e+01 7.474287201538460579e+01 7.474287201538460579e+01 7.474287201538460579e+01 7.474287201538460579e+01 7.474287201538460579e+01 7.474287201538460579e+01 7.474287201538460579e+01 7.474287201538460579e+01 7.474287201538460579e+01 7.474287201538460579e+01 7.474287201538460579e+01 7.474287201538460579e+01 7.474287201538460579e+01 7.474287201538460579e+01 7.474287201538460579e+01 7.474287201538460579e+01 7.474287201538460579e+01 7.474287201538460579e+01 7.474287201538460579e+01 7.474287201538460579e+01 7.474287201538460579e+01 7.474287201538460579e+01 7.474287201538460579e+01 7.474287201538460579e+01 7.474287201538460579e+01 7.474287201538460579e+01 7.474287201538460579e+01 7.474287201538460579e+01 7.474287201538460579e+01 7.474287201538460579e+01 7.474287201538460579e+01 7.474287201538460579e+01 7.474287201538460579e+01 7.474287201538460579e+01 7.474287201538460579e+01 7.474287201538460579e+01 7.474287201538460579e+01 7.474287201538460579e+01 7.474287201538460579e+01 7.474287201538460579e+01 7.474287201538460579e+01 7.474287201538460579e+01 7.474287201538460579e+01 7.474287201538460579e+01 7.474287201538460579e+01 7.474287201538460579e+01 7.474287201538460579e+01 7.474287201538460579e+01 7.474287201538460579e+01 7.474287201538460579e+01 7.474287201538460579e+01 7.474287201538460579e+01 7.474287201538460579e+01 7.474287201538460579e+01 7.474287201538460579e+01 7.474287201538460579e+01 7.474287201538460579e+01 7.474287201538460579e+01 7.474287201538460579e+01 7.474287201538460579e+01 7.474287201538460579e+01 7.474287201538460579e+01 7.474287201538460579e+01 7.474287201538460579e+01 7.474287201538460579e+01 7.474287201538460579e+01 7.474287201538460579e+01 7.474287201538460579e+01 7.474287201538460579e+01 7.474287201538460579e+01 7.474287201538460579e+01 7.474287201538460579e+01 7.474287201538460579e+01 7.474287201538460579e+01 7.474287201538460579e+01 7.474287201538460579e+01 7.474287201538460579e+01 7.474287201538460579e+01 7.474287201538460579e+01 3.091557819999999879e+02 2.980753000000000270e+02 2.615840989999999806e+02 2.697970559999999978e+02 2.833167480000000182e+02 2.634985229999999774e+02 2.816832570000000260e+02 2.564039839999999799e+02 2.820443379999999820e+02 2.459961859999999945e+02 2.926913519999999949e+02 2.295520099999999957e+02 3.275151510000000030e+02 3.098808179999999766e+02 2.812054269999999860e+02 2.451504539999999963e+02 2.826908020000000192e+02 2.678057299999999827e+02 2.866643189999999777e+02 2.746277150000000233e+02 3.053536189999999806e+02 2.649540719999999965e+02 2.892637280000000146e+02 2.392603190000000097e+02 3.170136469999999917e+02 2.271459279999999978e+02 2.417428639999999973e+02 2.634530419999999822e+02 2.696313049999999976e+02 2.482756029999999896e+02 2.952538989999999899e+02 2.551324390000000051e+02 2.655995810000000006e+02
1.149203318461538537e+01 1.149203318461538537e+01 1.149203318461538537e+01 1.149203318461538537e+01 1.149203318461538537e+01 1.149203318461538537e+01 1.149203318461538537e+01 1.149203318461538537e+01 1.149203318461538537e+01 1.149203318461538537e+01 1.149203318461538537e+01 1.149203318461538537e+01 1.149203318461538537e+01 1.149203318461538537e+01 1.149203318461538537e+01 1.149203318461538537e+01 1.149203318461538537e+01 1.149203318461538537e+01 1.149203318461538537e+01 1.149203318461538537e+01 1.149203318461538537e+01 1.149203318461538537e+01 1.149203318461538537e+01 1.149203318461538537e+01 1.149203318461538537e+01 1.149203318461538537e+01 1.149203318461538537e+01 1.149203318461538537e+01 1.149203318461538537e+01 1.149203318461538537e+01 1.149203318461538537e+01 1.149203318461538537e+01 1.149203318461538537e+01 1.149203318461538537e+01 1.149203318461538537e+01 1.149203318461538537e+01 1.149203318461538537e+01 1.149203318461538537e+01 1.149203318461538537e+01 1.149203318461538537e+01 1.149203318461538537e+01 1.149203318461538537e+01 1.149203318461538537e+01 1.149203318461538537e+01 1.149203318461538537e+01 1.149203318461538537e+01 1.149203318461538537e+01 1.149203318461538537e+01 1.149203318461538537e+01 1.149203318461538537e+01 1.149203318461538537e+01 1.149203318461538537e+01 1.149203318461538537e+01 1.149203318461538537e+01 1.149203318461538537e+01 1.149203318461538537e+01 1.149203318461538537e+01 1.149203318461538537e+01 1.149203318461538537e+01 1.149203318461538537e+01 1.149203318461538537e+01 1.149203318461538537e+01 1.149203318461538537e+01 1.149203318461538537e+01 1.149203318461538537e+01 1.149203318461538537e+01 1.149203318461538537e+01 1.149203318461538537e+01 1.149203318461538537e+01 1.149203318461538537e+01 1.149203318461538537e+01 1.149203318461538537e+01 1.149203318461538537e+01 1.149203318461538537e+01 1.149203318461538537e+01 1.149203318461538537e+01 1.149203318461538537e+01 1.149203318461538537e+01 1.149203318461538537e+01 1.149203318461538537e+01 1.149203318461538537e+01 1.149203318461538537e+01 1.149203318461538537e+01 1.149203318461538537e+01 1.149203318461538537e+01 1.149203318461538537e+01 1.149203318461538537e+01 1.149203318461538537e+01 1.149203318461538537e+01 1.149203318461538537e+01 1.149203318461538537e+01 1.149203318461538537e+01 1.149203318461538537e+01 1.149203318461538537e+01 1.149203318461538537e+01 1.149203318461538537e+01 1.149203318461538537e+01 1.149203318461538537e+01 1.149203318461538537e+01 1.149203318461538537e+01 1.149203318461538537e+01 1.149203318461538537e+01 1.149203318461538537e+01 1.149203318461538537e+01 1.149203318461538537e+01 1.149203318461538537e+01 1.149203318461538537e+01 1.149203318461538537e+01 1.149203318461538537e+01 1.149203318461538537e+01 1.149203318461538537e+01 1.149203318461538537e+01 1.149203318461538537e+01 1.149203318461538537e+01 1.149203318461538537e+01 1.149203318461538537e+01 1.149203318461538537e+01 1.149203318461538537e+01 1.149203318461538537e+01 1.149203318461538537e+01 1.149203318461538537e+01 1.149203318461538537e+01 1.149203318461538537e+01 1.149203318461538537e+01 1.149203318461538537e+01 1.149203318461538537e+01 1.149203318461538537e+01 1.149203318461538537e+01 1.149203318461538537e+01 1.149203318461538537e+01 1.149203318461538537e+01 1.149203318461538537e+01 1.149203318461538537e+01 1.149203318461538537e+01 1.149203318461538537e+01 1.149203318461538537e+01 1.149203318461538537e+01 1.149203318461538537e+01 1.149203318461538537e+01 1.149203318461538537e+01 1.149203318461538537e+01 1.149203318461538537e+01 1.149203318461538537e+01 1.149203318461538537e+01 1.149203318461538537e+01 1.149203318461538537e+01 1.149203318461538537e+01 1.149203318461538537e+01 1.149203318461538537e+01 1.149203318461538537e+01 1.149203318461538537e+01 1.149203318461538537e+01 1.149203318461538537e+01 1.149203318461538537e+01 1.149203318461538537e+01 1.149203318461538537e+01 1.149203318461538537e+01 1.149203318461538537e+01 1.149203318461538537e+01 1.149203318461538537e+01 1.149203318461538537e+01 1.149203318461538537e+01 1.149203318461538537e+01 1.149203318461538537e+01 1.149203318461538537e+01 1.149203318461538537e+01 1.149203318461538537e+01 1.149203318461538537e+01 1.149203318461538537e+01 1.149203318461538537e+01 1.149203318461538537e+01 1.149203318461538537e+01 1.149203318461538537e+01 1.149203318461538537e+01 1.149203318461538537e+01 1.149203318461538537e+01 1.149203318461538537e+01 4.692089750000000095e+02 4.312447179999999776e+02 4.430180990000000065e+02 4.193276210000000219e+02 4.511471520000000055e+02 4.150747920000000022e+02 4.467109009999999785e+02 4.119197449999999776e+02 4.518402150000000006e+02 4.018534720000000107e+02 4.702625409999999988e+02 3.820876010000000065e+02 4.883869250000000193e+02 4.439666659999999752e+02 4.693453339999999798e+02 3.893549160000000029e+02 4.469869449999999915e+02 4.148663819999999873e+02 4.618031300000000101e+02 4.253062140000000113e+02 4.847662779999999998e+02 4.175568900000000099e+02 4.602331330000000094e+02 3.912679319999999734e+02 4.540118679999999927e+02 3.677088009999999940e+02 4.209464500000000271e+02 4.067798869999999738e+02 4.480011519999999905e+02 3.892206929999999829e+02 4.573824329999999918e+02 4.091910379999999918e+02 4.301742770000000178e+02
2.934156469615384566e+01 2.934156469615384566e+01 2.934156469615384566e+01 2.934156469615384566e+01 2.934156469615384566e+01 2.934156469615384566e+01 2.934156469615384566e+01 2.934156469615384566e+01 2.934156469615384566e+01 2.934156469615384566e+01 2.934156469615384566e+01 2.934156469615384566e+01 2.934156469615384566e+01 2.934156469615384566e+01 2.934156469615384566e+01 2.934156469615384566e+01 2.934156469615384566e+01 2.934156469615384566e+01 2.934156469615384566e+01 2.934156469615384566e+01 2.934156469615384566e+01 2.934156469615384566e+01 2.934156469615384566e+01 2.934156469615384566e+01 2.934156469615384566e+01 2.934156469615384566e+01 2.934156469615384566e+01 2.934156469615384566e+01 2.934156469615384566e+01 2.934156469615384566e+01 2.934156469615384566e+01 2.934156469615384566e+01 2.934156469615384566e+01 2.934156469615384566e+01 2.934156469615384566e+01 2.934156469615384566e+01 2.934156469615384566e+01 2.934156469615384566e+01 2.934156469615384566e+01 2.934156469615384566e+01 2.934156469615384566e+01 2.934156469615384566e+01 2.934156469615384566e+01 2.934156469615384566e+01 2.934156469615384566e+01 2.934156469615384566e+01 2.934156469615384566e+01 2.934156469615384566e+01 2.934156469615384566e+01 2.934156469615384566e+01 2.934156469615384566e+01 2.934156469615384566e+01 2.934156469615384566e+01 2.934156469615384566e+01 2.934156469615384566e+01 2.934156469615384566e+01 2.934156469615384566e+01 2.934156469615384566e+01 2.934156469615384566e+01 2.934156469615384566e+01 2.934156469615384566e+01 2.934156469615384566e+01 2.934156469615384566e+01 2.934156469615384566e+01 2.934156469615384566e+01 2.934156469615384566e+01 2.934156469615384566e+01 2.934156469615384566e+01 2.934156469615384566e+01 2.934156469615384566e+01 2.934156469615384566e+01 2.934156469615384566e+01 2.934156469615384566e+01 2.934156469615384566e+01 2.934156469615384566e+01 2.934156469615384566e+01 2.934156469615384566e+01 2.934156469615384566e+01 2.934156469615384566e+01 2.934156469615384566e+01 2.934156469615384566e+01 2.934156469615384566e+01 2.934156469615384566e+01 2.934156469615384566e+01 2.934156469615384566e+01 2.934156469615384566e+01 2.934156469615384566e+01 2.934156469615384566e+01 2.934156469615384566e+01 2.934156469615384566e+01 2.934156469615384566e+01 2.934156469615384566e+01 2.934156469615384566e+01 2.934156469615384566e+01 2.934156469615384566e+01 2.934156469615384566e+01 2.934156469615384566e+01 2.934156469615384566e+01 2.934156469615384566e+01 2.934156469615384566e+01 2.934156469615384566e+01 2.934156469615384566e+01 2.934156469615384566e+01 2.934156469615384566e+01 2.934156469615384566e+01 2.934156469615384566e+01 2.934156469615384566e+01 2.934156469615384566e+01 2.934156469615384566e+01 2.934156469615384566e+01 2.934156469615384566e+01 2.934156469615384566e+01 2.934156469615384566e+01 2.934156469615384566e+01 2.934156469615384566e+01 2.934156469615384566e+01 2.934156469615384566e+01 2.934156469615384566e+01 2.934156469615384566e+01 2.934156469615384566e+01 2.934156469615384566e+01 2.934156469615384566e+01 2.934156469615384566e+01 2.934156469615384566e+01 2.934156469615384566e+01 2.934156469615384566e+01 2.934156469615384566e+01 2.934156469615384566e+01 2.934156469615384566e+01 2.934156469615384566e+01 2.934156469615384566e+01 2.934156469615384566e+01 2.934156469615384566e+01 2.934156469615384566e+01 2.934156469615384566e+01 2.934156469615384566e+01 2.934156469615384566e+01 2.934156469615384566e+01 2.934156469615384566e+01 2.934156469615384566e+01 2.934156469615384566e+01 2.934156469615384566e+01 2.934156469615384566e+01 2.934156469615384566e+01 2.934156469615384566e+01 2.934156469615384566e+01 2.934156469615384566e+01 2.934156469615384566e+01 2.934156469615384566e+01 2.934156469615384566e+01 2.934156469615384566e+01 2.934156469615384566e+01 2.934156469615384566e+01 2.934156469615384566e+01 2.934156469615384566e+01 2.934156469615384566e+01 2.934156469615384566e+01 2.934156469615384566e+01 2.934156469615384566e+01 2.934156469615384566e+01 2.934156469615384566e+01 2.934156469615384566e+01 2.934156469615384566e+01 2.934156469615384566e+01 2.934156469615384566e+01 2.934156469615384566e+01 2.934156469615384566e+01 2.934156469615384566e+01 2.934156469615384566e+01 2.934156469615384566e+01 2.934156469615384566e+01 2.934156469615384566e+01 2.934156469615384566e+01 2.934156469615384566e+01 2.934156469615384566e+01 2.934156469615384566e+01 2.934156469615384566e+01 4.576460749999999962e+02 4.139250410000000215e+02 4.355928999999999860e+02 4.099136470000000259e+02 4.374187039999999911e+02 4.070280789999999911e+02 4.364171479999999974e+02 4.051451159999999732e+02 4.494982949999999846e+02 3.991829149999999800e+02 4.656237869999999930e+02 3.766993190000000027e+02 4.723748780000000238e+02 4.290014209999999935e+02 4.610570220000000177e+02 3.795621249999999804e+02 4.363133209999999735e+02 4.017747069999999781e+02 4.488522590000000037e+02 4.104563059999999837e+02 4.713954390000000103e+02 4.056915960000000041e+02 4.445156549999999811e+02 3.826320309999999836e+02 4.332447419999999738e+02 3.573905579999999986e+02 4.190891490000000204e+02 3.974988730000000032e+02 4.421733179999999948e+02 3.801148860000000127e+02 4.453680770000000280e+02 3.956626499999999851e+02 4.153229789999999753e+02
8.488485388461539216e+00 8.488485388461539216e+00 8.488485388461539216e+00 8.488485388461539216e+00 8.488485388461539216e+00 8.488485388461539216e+00 8.488485388461539216e+00 8.488485388461539216e+00 8.488485388461539216e+00 8.488485388461539216e+00 8.488485388461539216e+00 8.488485388461539216e+00 8.488485388461539216e+00 8.488485388461539216e+00 8.488485388461539216e+00 8.488485388461539216e+00 8.488485388461539216e+00 8.488485388461539216e+00 8.488485388461539216e+00 8.488485388461539216e+00 8.488485388461539216e+00 8.488485388461539216e+00 8.488485388461539216e+00 8.488485388461539216e+00 8.488485388461539216e+00 8.488485388461539216e+00 8.488485388461539216e+00 8.488485388461539216e+00 8.488485388461539216e+00 8.488485388461539216e+00 8.488485388461539216e+00 8.488485388461539216e+00 8.488485388461539216e+00 8.488485388461539216e+00 8.488485388461539216e+00 8.488485388461539216e+00 8.488485388461539216e+00 8.488485388461539216e+00 8.488485388461539216e+00 8.488485388461539216e+00 8.488485388461539216e+00 8.488485388461539216e+00 8.488485388461539216e+00 8.488485388461539216e+00 8.488485388461539216e+00 8.488485388461539216e+00 8.488485388461539216e+00 8.488485388461539216e+00 8.488485388461539216e+00 8.488485388461539216e+00 8.488485388461539216e+00 8.488485388461539216e+00 8.488485388461539216e+00 8.488485388461539216e+00 8.488485388461539216e+00 8.488485388461539216e+00 8.488485388461539216e+00 8.488485388461539216e+00 8.488485388461539216e+00 8.488485388461539216e+00 8.488485388461539216e+00 8.488485388461539216e+00 8.488485388461539216e+00 8.488485388461539216e+00 8.488485388461539216e+00 8.488485388461539216e+00 8.488485388461539216e+00 8.488485388461539216e+00 8.488485388461539216e+00 8.488485388461539216e+00 8.488485388461539216e+00 8.488485388461539216e+00 8.488485388461539216e+00 8.488485388461539216e+00 8.488485388461539216e+00 8.488485388461539216e+00 8.488485388461539216e+00 8.488485388461539216e+00 8.488485388461539216e+00 8.488485388461539216e+00 8.488485388461539216e+00 8.488485388461539216e+00 8.488485388461539216e+00 8.488485388461539216e+00 8.488485388461539216e+00 8.488485388461539216e+00 8.488485388461539216e+00 8.488485388461539216e+00 8.488485388461539216e+00 8.488485388461539216e+00 8.488485388461539216e+00 8.488485388461539216e+00 8.488485388461539216e+00 8.488485388461539216e+00 8.488485388461539216e+00 8.488485388461539216e+00 8.488485388461539216e+00 8.488485388461539216e+00 8.488485388461539216e+00 8.488485388461539216e+00 8.488485388461539216e+00 8.488485388461539216e+00 8.488485388461539216e+00 8.488485388461539216e+00 8.488485388461539216e+00 8.488485388461539216e+00 8.488485388461539216e+00 8.488485388461539216e+00 8.488485388461539216e+00 8.488485388461539216e+00 8.488485388461539216e+00 8.488485388461539216e+00 8.488485388461539216e+00 8.488485388461539216e+00 8.488485388461539216e+00 8.488485388461539216e+00 8.488485388461539216e+00 8.488485388461539216e+00 8.488485388461539216e+00 8.488485388461539216e+00 8.488485388461539216e+00 8.488485388461539216e+00 8.488485388461539216e+00 8.488485388461539216e+00 8.488485388461539216e+00 8.488485388461539216e+00 8.488485388461539216e+00 8.488485388461539216e+00 8.488485388461539216e+00 8.488485388461539216e+00 8.488485388461539216e+00 8.488485388461539216e+00 8.488485388461539216e+00 8.488485388461539216e+00 8.488485388461539216e+00 8.488485388461539216e+00 8.488485388461539216e+00 8.488485388461539216e+00 8.488485388461539216e+00 8.488485388461539216e+00 8.488485388461539216e+00 8.488485388461539216e+00 8.488485388461539216e+00 8.488485388461539216e+00 8.488485388461539216e+00 8.488485388461539216e+00 8.488485388461539216e+00 8.488485388461539216e+00 8.488485388461539216e+00 8.488485388461539216e+00 8.488485388461539216e+00 8.488485388461539216e+00 8.488485388461539216e+00 8.488485388461539216e+00 8.488485388461539216e+00 8.488485388461539216e+00 8.488485388461539216e+00 8.488485388461539216e+00 8.488485388461539216e+00 8.488485388461539216e+00 8.488485388461539216e+00 8.488485388461539216e+00 8.488485388461539216e+00 8.488485388461539216e+00 8.488485388461539216e+00 8.488485388461539216e+00 8.488485388461539216e+00 8.488485388461539216e+00 8.488485388461539216e+00 8.488485388461539216e+00 8.488485388461539216e+00 8.488485388461539216e+00 8.488485388461539216e+00 8.488485388461539216e+00 8.488485388461539216e+00 8.488485388461539216e+00 8.488485388461539216e+00 4.640528610000000072e+02 4.279459160000000111e+02 4.465235500000000002e+02 4.315354909999999791e+02 4.369126469999999927e+02 4.246251619999999889e+02 4.460610369999999989e+02 4.242711289999999735e+02 4.580760639999999739e+02 4.201679399999999873e+02 4.750187290000000075e+02 3.992572749999999928e+02 4.690656470000000127e+02 4.450469560000000229e+02 4.665624599999999873e+02 4.052905279999999948e+02 4.462835039999999935e+02 4.161560339999999769e+02 4.560495809999999892e+02 4.251572350000000142e+02 4.670998969999999986e+02 4.188440790000000220e+02 4.485850399999999922e+02 4.086032410000000255e+02 4.421357199999999921e+02 3.803736680000000092e+02 4.324601390000000265e+02 4.235153960000000097e+02 4.479103640000000155e+02 4.029196509999999876e+02 4.589483660000000214e+02 4.135090480000000071e+02 4.210088000000000079e+02
2.652967515384615282e+01 2.652967515384615282e+01 2.652967515384615282e+01 2.652967515384615282e+01 2.652967515384615282e+01 2.652967515384615282e+01 2.652967515384615282e+01 2.652967515384615282e+01 2.652967515384615282e+01 2.652967515384615282e+01 2.652967515384615282e+01 2.652967515384615282e+01 2.652967515384615282e+01 2.652967515384615282e+01 2.652967515384615282e+01 2.652967515384615282e+01 2.652967515384615282e+01 2.652967515384615282e+01 2.652967515384615282e+01 2.652967515384615282e+01 2.652967515384615282e+01 2.652967515384615282e+01 2.652967515384615282e+01 2.652967515384615282e+01 2.652967515384615282e+01 2.652967515384615282e+01 2.652967515384615282e+01 2.652967515384615282e+01 2.652967515384615282e+01 2.652967515384615282e+01 2.652967515384615282e+01 2.652967515384615282e+01 2.652967515384615282e+01 2.652967515384615282e+01 2.652967515384615282e+01 2.652967515384615282e+01 2.652967515384615282e+01 2.652967515384615282e+01 2.652967515384615282e+01 2.652967515384615282e+01 2.652967515384615282e+01 2.652967515384615282e+01 2.652967515384615282e+01 2.652967515384615282e+01 2.652967515384615282e+01 2.652967515384615282e+01 2.652967515384615282e+01 2.652967515384615282e+01 2.652967515384615282e+01 2.652967515384615282e+01 2.652967515384615282e+01 2.652967515384615282e+01 2.652967515384615282e+01 2.652967515384615282e+01 2.652967515384615282e+01 2.652967515384615282e+01 2.652967515384615282e+01 2.652967515384615282e+01 2.652967515384615282e+01 2.652967515384615282e+01 2.652967515384615282e+01 2.652967515384615282e+01 2.652967515384615282e+01 2.652967515384615282e+01 2.652967515384615282e+01 2.652967515384615282e+01 2.652967515384615282e+01 2.652967515384615282e+01 2.652967515384615282e+01 2.652967515384615282e+01 2.652967515384615282e+01 2.652967515384615282e+01 2.652967515384615282e+01 2.652967515384615282e+01 2.652967515384615282e+01 2.652967515384615282e+01 2.652967515384615282e+01 2.652967515384615282e+01 2.652967515384615282e+01 2.652967515384615282e+01 2.652967515384615282e+01 2.652967515384615282e+01 2.652967515384615282e+01 2.652967515384615282e+01 2.652967515384615282e+01 2.652967515384615282e+01 2.652967515384615282e+01 2.652967515384615282e+01 2.652967515384615282e+01 2.652967515384615282e+01 2.652967515384615282e+01 2.652967515384615282e+01 2.652967515384615282e+01 2.652967515384615282e+01 2.652967515384615282e+01 2.652967515384615282e+01 2.652967515384615282e+01 2.652967515384615282e+01 2.652967515384615282e+01 2.652967515384615282e+01 2.652967515384615282e+01 2.652967515384615282e+01 2.652967515384615282e+01 2.652967515384615282e+01 2.652967515384615282e+01 2.652967515384615282e+01 2.652967515384615282e+01 2.652967515384615282e+01 2.652967515384615282e+01 2.652967515384615282e+01 2.652967515384615282e+01 2.652967515384615282e+01 2.652967515384615282e+01 2.652967515384615282e+01 2.652967515384615282e+01 2.652967515384615282e+01 2.652967515384615282e+01 2.652967515384615282e+01 2.652967515384615282e+01 2.652967515384615282e+01 2.652967515384615282e+01 2.652967515384615282e+01 2.652967515384615282e+01 2.652967515384615282e+01 2.652967515384615282e+01 2.652967515384615282e+01 2.652967515384615282e+01 2.652967515384615282e+01 2.652967515384615282e+01 2.652967515384615282e+01 2.652967515384615282e+01 2.652967515384615282e+01 2.652967515384615282e+01 2.652967515384615282e+01 2.652967515384615282e+01 2.652967515384615282e+01 2.652967515384615282e+01 2.652967515384615282e+01 2.652967515384615282e+01 2.652967515384615282e+01 2.652967515384615282e+01 2.652967515384615282e+01 2.652967515384615282e+01 2.652967515384615282e+01 2.652967515384615282e+01 2.652967515384615282e+01 2.652967515384615282e+01 2.652967515384615282e+01 2.652967515384615282e+01 2.652967515384615282e+01 2.652967515384615282e+01 2.652967515384615282e+01 2.652967515384615282e+01 2.652967515384615282e+01 2.652967515384615282e+01 2.652967515384615282e+01 2.652967515384615282e+01 2.652967515384615282e+01 2.652967515384615282e+01 2.652967515384615282e+01 2.652967515384615282e+01 2.652967515384615282e+01 2.652967515384615282e+01 2.652967515384615282e+01 2.652967515384615282e+01 2.652967515384615282e+01 2.652967515384615282e+01 2.652967515384615282e+01 2.652967515384615282e+01 2.652967515384615282e+01 2.652967515384615282e+01 2.652967515384615282e+01 2.652967515384615282e+01 2.652967515384615282e+01 2.652967515384615282e+01 2.652967515384615282e+01 2.652967515384615282e+01 4.607999060000000213e+02 4.233151240000000257e+02 4.400664310000000228e+02 4.328194849999999860e+02 4.276273049999999785e+02 4.217010510000000068e+02 4.356927210000000059e+02 4.163890250000000037e+02 4.596100979999999936e+02 4.177865330000000199e+02 4.753254810000000248e+02 3.946049570000000131e+02 4.642434430000000134e+02 4.423343300000000227e+02 4.689918870000000197e+02 3.857230279999999993e+02 4.470888949999999795e+02 4.062224110000000223e+02 4.463053259999999796e+02 4.054651089999999840e+02 4.595175160000000005e+02 4.055035710000000222e+02 4.375515819999999962e+02 3.973882570000000101e+02 4.380348740000000021e+02 3.721590350000000171e+02 4.252135119999999802e+02 4.149780620000000226e+02 4.460525729999999953e+02 4.035238150000000132e+02 4.590289599999999837e+02 4.050075929999999858e+02 4.174565170000000194e+02
